L I	L III	L II(Calc.)
0.296631	-0.0918579	0.204773
0.287476	-0.0866699	0.200806
0.276794	-0.0814819	0.195313
0.264282	-0.0756836	0.188599
0.250244	-0.0695801	0.180664
0.235596	-0.0628662	0.172729
0.220032	-0.0561523	0.163879
0.204163	-0.0497437	0.154419
0.187683	-0.0439453	0.143738
0.171509	-0.0384521	0.133057
0.155029	-0.0332642	0.121765
0.13916	-0.0292969	0.109863
0.123901	-0.0259399	0.0979614
0.108948	-0.0228882	0.0860596
0.0942993	-0.0204468	0.0738525
0.0802612	-0.0183105	0.0619507
0.0668335	-0.0167847	0.0500488
0.0540161	-0.015564	0.0384521
0.0421143	-0.0149536	0.0271606
0.0314331	-0.0149536	0.0164795
0.0213623	-0.015564	0.00579834
0.012207	-0.0158691	-0.00366211
0.00396729	-0.0158691	-0.0119019
-0.00305176	-0.0161743	-0.0192261
-0.00854492	-0.0167847	-0.0253296
-0.0137329	-0.0177002	-0.0314331
-0.0186157	-0.0189209	-0.0375366
-0.022583	-0.0198364	-0.0424194
-0.0262451	-0.0204468	-0.0466919
-0.0289917	-0.0213623	-0.050354
-0.0320435	-0.0219727	-0.0540161
-0.0344849	-0.0228882	-0.057373
-0.0366211	-0.0238037	-0.0604248
-0.0384521	-0.0247192	-0.0631714
-0.039978	-0.0256348	-0.0656128
-0.0408936	-0.0259399	-0.0668335
-0.0411987	-0.0265503	-0.067749
-0.0415039	-0.0274658	-0.0689697
-0.0424194	-0.0280762	-0.0704956
-0.0427246	-0.0286865	-0.0714111
-0.0427246	-0.0292969	-0.0720215
-0.0424194	-0.0299072	-0.0723267
-0.0415039	-0.0302124	-0.0717163
-0.0405884	-0.0305176	-0.071106
-0.039978	-0.0305176	-0.0704956
-0.0390625	-0.0305176	-0.0695801
-0.038147	-0.0305176	-0.0686646
-0.0375366	-0.0302124	-0.067749
-0.0366211	-0.0299072	-0.0665283
-0.0360107	-0.0296021	-0.0656128
-0.0354004	-0.0289917	-0.0643921
-0.03479	-0.0283813	-0.0631714
-0.0341797	-0.0286865	-0.0628662
-0.0335693	-0.0292969	-0.0628662
-0.032959	-0.0302124	-0.0631714
-0.0323486	-0.0311279	-0.0634766
-0.0314331	-0.0323486	-0.0637817
-0.0308228	-0.0335693	-0.0643921
-0.0299072	-0.03479	-0.0646973
-0.0283813	-0.0357056	-0.0640869
-0.0268555	-0.0363159	-0.0631714
-0.0253296	-0.0366211	-0.0619507
-0.0241089	-0.0363159	-0.0604248
-0.0234985	-0.0357056	-0.0592041
-0.022583	-0.03479	-0.057373
-0.022583	-0.0332642	-0.0558472
-0.0231934	-0.0323486	-0.055542
-0.0234985	-0.0317383	-0.0552368
-0.0234985	-0.0314331	-0.0549316
-0.0241089	-0.0314331	-0.055542
-0.0247192	-0.0314331	-0.0561523
-0.0259399	-0.0317383	-0.0576782
-0.0262451	-0.0323486	-0.0585938
-0.0262451	-0.032959	-0.0592041
-0.0256348	-0.032959	-0.0585938
-0.0253296	-0.0326538	-0.0579834
-0.0247192	-0.0320435	-0.0567627
-0.0238037	-0.0311279	-0.0549316
-0.0231934	-0.0302124	-0.0534058
-0.0222778	-0.0292969	-0.0515747
-0.0216675	-0.0286865	-0.050354
-0.0216675	-0.027771	-0.0494385
-0.0219727	-0.0274658	-0.0494385
-0.0219727	-0.0271606	-0.0491333
-0.0219727	-0.0274658	-0.0494385
-0.0219727	-0.027771	-0.0497437
-0.0222778	-0.0286865	-0.0509644
-0.022583	-0.0289917	-0.0515747
-0.0231934	-0.0296021	-0.0527954
-0.0231934	-0.0299072	-0.0531006
-0.0228882	-0.0302124	-0.0531006
-0.0228882	-0.0302124	-0.0531006
-0.0231934	-0.0302124	-0.0534058
-0.0234985	-0.0302124	-0.0537109
-0.0234985	-0.0302124	-0.0537109
-0.0238037	-0.0308228	-0.0546265
-0.0238037	-0.0314331	-0.0552368
-0.0241089	-0.0320435	-0.0561523
-0.0244141	-0.0323486	-0.0567627
-0.0247192	-0.0326538	-0.057373
-0.0247192	-0.0326538	-0.057373
-0.0247192	-0.0326538	-0.057373
-0.0250244	-0.0323486	-0.057373
-0.0256348	-0.0323486	-0.0579834
-0.0259399	-0.0320435	-0.0579834
-0.0265503	-0.0314331	-0.0579834
-0.0268555	-0.0311279	-0.0579834
-0.0268555	-0.0314331	-0.0582886
-0.0268555	-0.0320435	-0.0588989
-0.0265503	-0.0332642	-0.0598145
-0.0262451	-0.0344849	-0.06073
-0.0259399	-0.0360107	-0.0619507
-0.0259399	-0.0369263	-0.0628662
-0.0262451	-0.038147	-0.0643921
-0.0268555	-0.0393677	-0.0662231
-0.0271606	-0.0405884	-0.067749
-0.0280762	-0.0408936	-0.0689697
-0.0283813	-0.0411987	-0.0695801
-0.0289917	-0.0408936	-0.0698853
-0.0296021	-0.0405884	-0.0701904
-0.0302124	-0.039978	-0.0701904
-0.0311279	-0.0393677	-0.0704956
-0.0311279	-0.0390625	-0.0701904
-0.0308228	-0.0390625	-0.0698853
-0.0305176	-0.0393677	-0.0698853
-0.0305176	-0.0396729	-0.0701904
-0.0311279	-0.0402832	-0.0714111
-0.0314331	-0.0408936	-0.0723267
-0.0320435	-0.0415039	-0.0735474
-0.0326538	-0.0421143	-0.0747681
-0.0335693	-0.0427246	-0.0762939
-0.0350952	-0.043335	-0.0784302
-0.0363159	-0.043335	-0.0796509
-0.0369263	-0.043335	-0.0802612
-0.0372314	-0.0430298	-0.0802612
-0.0369263	-0.0424194	-0.0793457
-0.0363159	-0.0421143	-0.0784302
-0.0354004	-0.0411987	-0.0765991
-0.0344849	-0.0405884	-0.0750732
-0.0332642	-0.0405884	-0.0738525
-0.0323486	-0.0408936	-0.0732422
-0.0317383	-0.0411987	-0.072937
-0.0308228	-0.0415039	-0.0723267
-0.0302124	-0.0424194	-0.0726318
-0.0292969	-0.043335	-0.0726318
-0.0286865	-0.0445557	-0.0732422
-0.0286865	-0.0454712	-0.0741577
-0.0283813	-0.0457764	-0.0741577
-0.0283813	-0.0460815	-0.0744629
-0.0280762	-0.0463867	-0.0744629
-0.0274658	-0.0463867	-0.0738525
-0.0265503	-0.0460815	-0.0726318
-0.0256348	-0.0454712	-0.071106
-0.0256348	-0.0448608	-0.0704956
-0.0262451	-0.0442505	-0.0704956
-0.0274658	-0.043335	-0.0708008
-0.0286865	-0.0427246	-0.0714111
-0.0299072	-0.0418091	-0.0717163
-0.0308228	-0.0411987	-0.0720215
-0.0317383	-0.0405884	-0.0723267
-0.0326538	-0.039978	-0.0726318
-0.0332642	-0.0396729	-0.072937
-0.0332642	-0.0396729	-0.072937
-0.0326538	-0.039978	-0.0726318
-0.0311279	-0.039978	-0.071106
-0.0283813	-0.039978	-0.0683594
-0.0253296	-0.0390625	-0.0643921
-0.0216675	-0.0375366	-0.0592041
-0.0177002	-0.0350952	-0.0527954
-0.0137329	-0.0314331	-0.045166
-0.0100708	-0.0271606	-0.0372314
-0.00640869	-0.0222778	-0.0286865
-0.00213623	-0.0177002	-0.0198364
0.00183105	-0.012207	-0.010376
0.00457764	-0.00671387	-0.00213623
0.00640869	-0.00152588	0.00488281
0.00823975	0.00213623	0.010376
0.0100708	0.00488281	0.0149536
0.0115967	0.00640869	0.0180054
0.0125122	0.00793457	0.0204468
0.0128174	0.00915527	0.0219727
0.0134277	0.010376	0.0238037
0.0146484	0.0119019	0.0265503
0.017395	0.0128174	0.0302124
0.0216675	0.0137329	0.0354004
0.0265503	0.0143433	0.0408936
0.0320435	0.0149536	0.0469971
0.0372314	0.015564	0.0527954
0.0421143	0.0158691	0.0579834
0.0473022	0.0149536	0.0622559
0.0524902	0.0128174	0.0653076
0.057373	0.0088501	0.0662231
0.0610352	0.00305176	0.0640869
0.0634766	-0.00396729	0.0595093
0.0637817	-0.0115967	0.0521851
0.062561	-0.0195313	0.0430298
0.0598145	-0.0268555	0.032959
0.0561523	-0.0332642	0.0228882
0.0515747	-0.0390625	0.0125122
0.0463867	-0.0439453	0.00244141
0.0408936	-0.0482178	-0.00732422
0.0350952	-0.0509644	-0.0158691
0.0283813	-0.0521851	-0.0238037
0.0204468	-0.0521851	-0.0317383
0.0125122	-0.0512695	-0.0387573
0.00488281	-0.0500488	-0.045166
-0.00183105	-0.0491333	-0.0509644
-0.00793457	-0.0491333	-0.0570679
-0.0137329	-0.0497437	-0.0634766
-0.0192261	-0.0500488	-0.0692749
-0.0241089	-0.0509644	-0.0750732
-0.027771	-0.0518799	-0.0796509
-0.0299072	-0.0534058	-0.083313
-0.0308228	-0.0546265	-0.0854492
-0.0317383	-0.0552368	-0.0869751
-0.0323486	-0.0558472	-0.0881958
-0.0323486	-0.0561523	-0.088501
-0.0320435	-0.0564575	-0.088501
-0.0311279	-0.0567627	-0.0878906
-0.0305176	-0.0570679	-0.0875854
-0.0305176	-0.057373	-0.0878906
-0.0308228	-0.0579834	-0.0888062
-0.0311279	-0.0582886	-0.0894165
-0.0314331	-0.0585938	-0.0900269
-0.0323486	-0.0592041	-0.0915527
-0.0332642	-0.0598145	-0.0930786
-0.0341797	-0.0601196	-0.0942993
-0.0350952	-0.0604248	-0.09552
-0.0360107	-0.0601196	-0.0961304
-0.0375366	-0.0592041	-0.0967407
-0.0387573	-0.0585938	-0.0973511
-0.0396729	-0.0576782	-0.0973511
-0.0402832	-0.0567627	-0.0970459
-0.0402832	-0.0561523	-0.0964355
-0.039978	-0.055542	-0.09552
-0.0393677	-0.0552368	-0.0946045
-0.0387573	-0.0552368	-0.0939941
-0.0375366	-0.0552368	-0.0927734
-0.0366211	-0.0558472	-0.0924683
-0.0357056	-0.0564575	-0.0921631
-0.0344849	-0.057373	-0.0918579
-0.0338745	-0.0582886	-0.0921631
-0.0332642	-0.0592041	-0.0924683
-0.0332642	-0.0598145	-0.0930786
-0.0341797	-0.0604248	-0.0946045
-0.0354004	-0.0604248	-0.0958252
-0.0366211	-0.0604248	-0.0970459
-0.0369263	-0.0598145	-0.0967407
-0.0366211	-0.0598145	-0.0964355
-0.0360107	-0.0601196	-0.0961304
-0.0360107	-0.0604248	-0.0964355
-0.0354004	-0.0601196	-0.09552
-0.0341797	-0.0601196	-0.0942993
-0.0326538	-0.0601196	-0.0927734
-0.0311279	-0.0601196	-0.0912476
-0.0302124	-0.0604248	-0.0906372
-0.0296021	-0.0604248	-0.0900269
-0.0296021	-0.0601196	-0.0897217
-0.0305176	-0.0595093	-0.0900269
-0.0320435	-0.0582886	-0.090332
-0.0335693	-0.055542	-0.0891113
-0.0344849	-0.0506592	-0.085144
-0.0344849	-0.0436401	-0.078125
-0.0323486	-0.0344849	-0.0668335
-0.0286865	-0.0238037	-0.0524902
-0.0228882	-0.0119019	-0.03479
-0.0143433	0.000305176	-0.0140381
-0.0012207	0.0115967	0.010376
0.0189209	0.0195313	0.0384521
0.0460815	0.0228882	0.0689697
0.0802612	0.020752	0.101013
0.12085	0.0134277	0.134277
0.167542	0.00213623	0.169678
0.217896	-0.012207	0.205688
0.270691	-0.0338745	0.236816
0.324402	-0.0671387	0.257263
0.375977	-0.112305	0.263672
0.420227	-0.162354	0.257874
0.449524	-0.210876	0.238647
0.45929	-0.255432	0.203857
0.447083	-0.293884	0.153198
0.412598	-0.323486	0.0891113
0.357056	-0.341492	0.015564
0.285339	-0.344238	-0.0588989
0.202026	-0.32959	-0.127563
0.114441	-0.299072	-0.184631
0.0302124	-0.255127	-0.224915
-0.0439453	-0.202637	-0.246582
-0.102844	-0.14679	-0.249634
-0.141907	-0.093689	-0.235596
-0.159607	-0.0488281	-0.208435
-0.157166	-0.0152588	-0.172424
-0.13855	0.00518799	-0.133362
-0.108337	0.0134277	-0.0949097
-0.072937	0.0100708	-0.0628662
-0.0378418	-0.00183105	-0.0396729
-0.00823975	-0.0180054	-0.0262451
0.0137329	-0.03479	-0.0210571
0.0265503	-0.0494385	-0.0228882
0.0311279	-0.0604248	-0.0292969
0.0289917	-0.0662231	-0.0372314
0.0222778	-0.0680542	-0.0457764
0.0128174	-0.0662231	-0.0534058
0.00366211	-0.0622559	-0.0585938
-0.00396729	-0.0582886	-0.0622559
-0.00915527	-0.0546265	-0.0637817
-0.0115967	-0.0518799	-0.0634766
-0.0119019	-0.0506592	-0.062561
-0.0106812	-0.0506592	-0.0613403
-0.00854492	-0.0518799	-0.0604248
-0.00610352	-0.0534058	-0.0595093
-0.00335693	-0.0552368	-0.0585938
-0.000305176	-0.0570679	-0.057373
0.00213623	-0.0582886	-0.0561523
0.00427246	-0.0592041	-0.0549316
0.00610352	-0.0592041	-0.0531006
0.00701904	-0.0585938	-0.0515747
0.00762939	-0.057373	-0.0497437
0.00854492	-0.0558472	-0.0473022
0.00946045	-0.0549316	-0.0454712
0.010376	-0.0540161	-0.0436401
0.0109863	-0.0537109	-0.0427246
0.0119019	-0.0537109	-0.0418091
0.0125122	-0.0540161	-0.0415039
0.0131226	-0.0543213	-0.0411987
0.0143433	-0.0546265	-0.0402832
0.0158691	-0.0552368	-0.0393677
0.017395	-0.0552368	-0.0378418
0.0186157	-0.0552368	-0.0366211
0.0201416	-0.055542	-0.0354004
0.0219727	-0.0558472	-0.0338745
0.0238037	-0.0561523	-0.0323486
0.0256348	-0.0561523	-0.0305176
0.0274658	-0.0561523	-0.0286865
0.0289917	-0.0561523	-0.0271606
0.0308228	-0.0561523	-0.0253296
0.0326538	-0.0561523	-0.0234985
0.0338745	-0.0558472	-0.0219727
0.0344849	-0.0561523	-0.0216675
0.03479	-0.0567627	-0.0219727
0.0350952	-0.0570679	-0.0219727
0.0354004	-0.0570679	-0.0216675
0.0360107	-0.0570679	-0.0210571
0.0360107	-0.057373	-0.0213623
0.0363159	-0.0576782	-0.0213623
0.0372314	-0.0585938	-0.0213623
0.0387573	-0.0595093	-0.020752
0.0405884	-0.0601196	-0.0195313
0.0421143	-0.0604248	-0.0183105
0.0439453	-0.0601196	-0.0161743
0.0457764	-0.0595093	-0.0137329
0.0479126	-0.0585938	-0.0106812
0.050354	-0.0576782	-0.00732422
0.0527954	-0.0567627	-0.00396729
0.0552368	-0.055542	-0.000305176
0.0570679	-0.0543213	0.00274658
0.0592041	-0.0534058	0.00579834
0.0616455	-0.0531006	0.00854492
0.0640869	-0.0534058	0.0106812
0.0665283	-0.0543213	0.012207
0.0689697	-0.0558472	0.0131226
0.071106	-0.0570679	0.0140381
0.0738525	-0.0582886	0.015564
0.0759888	-0.0601196	0.0158691
0.0784302	-0.0619507	0.0164795
0.0802612	-0.0634766	0.0167847
0.0820923	-0.0646973	0.017395
0.0839233	-0.0653076	0.0186157
0.0863647	-0.065918	0.0204468
0.0891113	-0.0665283	0.022583
0.0918579	-0.0668335	0.0250244
0.0946045	-0.0668335	0.027771
0.0973511	-0.0665283	0.0308228
0.101013	-0.0668335	0.0341797
0.10498	-0.067749	0.0372314
0.109253	-0.0689697	0.0402832
0.113525	-0.0695801	0.0439453
0.117188	-0.0701904	0.0469971
0.121155	-0.071106	0.0500488
0.124817	-0.0723267	0.0524902
0.129395	-0.0735474	0.0558472
0.133667	-0.0744629	0.0592041
0.137329	-0.0753784	0.0619507
0.140076	-0.0762939	0.0637817
0.143738	-0.0769043	0.0668335
0.148621	-0.0784302	0.0701904
0.154724	-0.0799561	0.0747681
0.161438	-0.0817871	0.0796509
0.167847	-0.083313	0.0845337
0.17395	-0.085144	0.0888062
0.180664	-0.0869751	0.093689
0.187683	-0.088501	0.0991821
0.195007	-0.090332	0.104675
0.202637	-0.0921631	0.110474
0.209045	-0.0930786	0.115967
0.215149	-0.093689	0.12146
0.220947	-0.0939941	0.126953
0.226135	-0.0939941	0.132141
0.231018	-0.093689	0.137329
0.236206	-0.0933838	0.142822
0.241394	-0.0933838	0.14801
0.246582	-0.093689	0.152893
0.251465	-0.0939941	0.157471
0.256348	-0.0942993	0.162048
0.260925	-0.0952148	0.16571
0.265198	-0.0964355	0.168762
0.269775	-0.0979614	0.171814
0.274048	-0.098877	0.175171
0.27832	-0.0991821	0.179138
0.282898	-0.0994873	0.183411
0.28717	-0.0994873	0.187683
0.291443	-0.098877	0.192566
0.29541	-0.0979614	0.197449
0.299072	-0.0964355	0.202637
0.302124	-0.093689	0.208435
0.304565	-0.0906372	0.213928
0.305786	-0.0878906	0.217896
0.305481	-0.0848389	0.220642
0.303345	-0.0814819	0.221863
0.299683	-0.0778198	0.221863
0.2948	-0.0738525	0.220947
0.288696	-0.0698853	0.218811
0.280762	-0.0653076	0.215454
0.270996	-0.0610352	0.209961
0.259399	-0.0561523	0.203247
0.246582	-0.0506592	0.195923
0.232239	-0.0448608	0.187378
0.21698	-0.0387573	0.178223
0.201111	-0.0326538	0.168457
0.184631	-0.0259399	0.158691
0.168152	-0.0195313	0.148621
0.151367	-0.0131226	0.138245
0.134888	-0.00732422	0.127563
0.119019	-0.00244141	0.116577
0.104065	0.00213623	0.106201
0.090332	0.00610352	0.0964355
0.0769043	0.00946045	0.0863647
0.0640869	0.0119019	0.0759888
0.0518799	0.0137329	0.0656128
0.0402832	0.0143433	0.0546265
0.0296021	0.0149536	0.0445557
0.0192261	0.0152588	0.0344849
0.00976563	0.0149536	0.0247192
0.000915527	0.0140381	0.0149536
-0.00762939	0.0134277	0.00579834
-0.0149536	0.0128174	-0.00213623
-0.0210571	0.0119019	-0.00915527
-0.0262451	0.0109863	-0.0152588
-0.0308228	0.0100708	-0.020752
-0.0350952	0.0088501	-0.0262451
-0.0390625	0.00762939	-0.0314331
-0.0424194	0.00640869	-0.0360107
-0.0454712	0.00518799	-0.0402832
-0.0482178	0.00366211	-0.0445557
-0.0509644	0.00244141	-0.0485229
-0.0534058	0.00152588	-0.0518799
-0.0552368	0.000610352	-0.0546265
-0.0570679	-0.000305176	-0.057373
-0.0588989	-0.0012207	-0.0601196
-0.0595093	-0.00213623	-0.0616455
-0.0598145	-0.00305176	-0.0628662
-0.0595093	-0.00335693	-0.0628662
-0.0588989	-0.00305176	-0.0619507
-0.0585938	-0.00305176	-0.0616455
-0.0588989	-0.00335693	-0.0622559
-0.0604248	-0.00366211	-0.0640869
-0.062561	-0.00335693	-0.065918
-0.0637817	-0.00274658	-0.0665283
-0.0634766	-0.00213623	-0.0656128
-0.0622559	-0.00213623	-0.0643921
-0.0616455	-0.00244141	-0.0640869
-0.0613403	-0.00274658	-0.0640869
-0.0610352	-0.00366211	-0.0646973
-0.0588989	-0.00457764	-0.0634766
-0.0552368	-0.00549316	-0.06073
-0.050354	-0.00610352	-0.0564575
-0.0457764	-0.00671387	-0.0524902
-0.0424194	-0.00701904	-0.0494385
-0.0402832	-0.00732422	-0.0476074
-0.0390625	-0.00762939	-0.0466919
-0.0390625	-0.00732422	-0.0463867
-0.0393677	-0.00671387	-0.0460815
-0.0387573	-0.00610352	-0.0448608
-0.038147	-0.00579834	-0.0439453
-0.0372314	-0.00549316	-0.0427246
-0.0366211	-0.00549316	-0.0421143
-0.0360107	-0.00518799	-0.0411987
-0.0350952	-0.00488281	-0.039978
-0.0335693	-0.00457764	-0.038147
-0.0317383	-0.00427246	-0.0360107
-0.0302124	-0.00396729	-0.0341797
-0.0286865	-0.00335693	-0.0320435
-0.0274658	-0.00305176	-0.0305176
-0.0268555	-0.00274658	-0.0296021
-0.0271606	-0.00274658	-0.0299072
-0.0280762	-0.00305176	-0.0311279
-0.0289917	-0.00305176	-0.0320435
-0.0302124	-0.00335693	-0.0335693
-0.0314331	-0.00366211	-0.0350952
-0.032959	-0.00335693	-0.0363159
-0.03479	-0.00274658	-0.0375366
-0.0363159	-0.00213623	-0.0384521
-0.0375366	-0.00152588	-0.0390625
-0.0387573	-0.0012207	-0.039978
-0.039978	-0.000915527	-0.0408936
-0.0408936	-0.000305176	-0.0411987
-0.0415039	-0.000305176	-0.0418091
-0.0424194	-0.000305176	-0.0427246
-0.0427246	-0.000915527	-0.0436401
-0.0430298	-0.00183105	-0.0448608
-0.0430298	-0.00274658	-0.0457764
-0.0427246	-0.00396729	-0.0466919
-0.0424194	-0.00518799	-0.0476074
-0.0427246	-0.00549316	-0.0482178
-0.043335	-0.00549316	-0.0488281
-0.043335	-0.00518799	-0.0485229
-0.0430298	-0.00579834	-0.0488281
-0.0424194	-0.00671387	-0.0491333
-0.0421143	-0.00762939	-0.0497437
-0.0418091	-0.00823975	-0.0500488
-0.0418091	-0.00823975	-0.0500488
-0.0424194	-0.00823975	-0.0506592
-0.0430298	-0.00854492	-0.0515747
-0.043335	-0.00854492	-0.0518799
-0.0436401	-0.0088501	-0.0524902
-0.0439453	-0.0088501	-0.0527954
-0.0448608	-0.0088501	-0.0537109
-0.0454712	-0.00854492	-0.0540161
-0.0463867	-0.00823975	-0.0546265
-0.0473022	-0.00823975	-0.055542
-0.0479126	-0.0088501	-0.0567627
-0.0485229	-0.00946045	-0.0579834
-0.0491333	-0.0109863	-0.0601196
-0.0497437	-0.0128174	-0.062561
-0.0500488	-0.0143433	-0.0643921
-0.0497437	-0.015564	-0.0653076
-0.0494385	-0.0164795	-0.065918
-0.0494385	-0.0167847	-0.0662231
-0.0491333	-0.0167847	-0.065918
-0.0488281	-0.0161743	-0.0650024
-0.0485229	-0.015564	-0.0640869
-0.0479126	-0.0143433	-0.0622559
-0.0476074	-0.0131226	-0.06073
-0.0476074	-0.012207	-0.0598145
-0.0479126	-0.0119019	-0.0598145
-0.0485229	-0.012207	-0.06073
-0.0494385	-0.0128174	-0.0622559
-0.050354	-0.0143433	-0.0646973
-0.0509644	-0.0164795	-0.0674438
-0.0518799	-0.0183105	-0.0701904
-0.0527954	-0.0198364	-0.0726318
-0.0540161	-0.0210571	-0.0750732
-0.0549316	-0.0222778	-0.0772095
-0.0549316	-0.0238037	-0.0787354
-0.0543213	-0.0244141	-0.0787354
-0.0537109	-0.0244141	-0.078125
-0.0527954	-0.0238037	-0.0765991
-0.0515747	-0.0231934	-0.0747681
-0.0500488	-0.022583	-0.0726318
-0.0485229	-0.0222778	-0.0708008
-0.0469971	-0.022583	-0.0695801
-0.045166	-0.0228882	-0.0680542
-0.0436401	-0.0238037	-0.0674438
-0.0430298	-0.0247192	-0.067749
-0.0430298	-0.0250244	-0.0680542
-0.0442505	-0.0253296	-0.0695801
-0.0460815	-0.0259399	-0.0720215
-0.0476074	-0.0265503	-0.0741577
-0.0482178	-0.0268555	-0.0750732
-0.0482178	-0.0268555	-0.0750732
-0.0479126	-0.0262451	-0.0741577
-0.0479126	-0.0253296	-0.0732422
-0.0473022	-0.0244141	-0.0717163
-0.0463867	-0.022583	-0.0689697
-0.0457764	-0.0210571	-0.0668335
-0.0448608	-0.0198364	-0.0646973
-0.0442505	-0.0192261	-0.0634766
-0.0436401	-0.0192261	-0.0628662
-0.043335	-0.0195313	-0.0628662
-0.0430298	-0.020752	-0.0637817
-0.0424194	-0.0222778	-0.0646973
-0.0415039	-0.0244141	-0.065918
-0.0408936	-0.0265503	-0.0674438
-0.0402832	-0.0283813	-0.0686646
-0.0393677	-0.0299072	-0.0692749
-0.038147	-0.0308228	-0.0689697
-0.0369263	-0.0308228	-0.067749
-0.0357056	-0.0302124	-0.065918
-0.03479	-0.0296021	-0.0643921
-0.0341797	-0.0286865	-0.0628662
-0.0341797	-0.0274658	-0.0616455
-0.0341797	-0.0262451	-0.0604248
-0.0335693	-0.0256348	-0.0592041
-0.0332642	-0.0247192	-0.0579834
-0.0335693	-0.0247192	-0.0582886
-0.0332642	-0.0247192	-0.0579834
-0.0326538	-0.0253296	-0.0579834
-0.0317383	-0.0256348	-0.057373
-0.0311279	-0.0262451	-0.057373
-0.0311279	-0.0268555	-0.0579834
-0.0317383	-0.0271606	-0.0588989
-0.0320435	-0.027771	-0.0598145
-0.0320435	-0.0283813	-0.0604248
-0.0323486	-0.0289917	-0.0613403
-0.0326538	-0.0292969	-0.0619507
-0.032959	-0.0302124	-0.0631714
-0.032959	-0.0311279	-0.0640869
-0.0320435	-0.0314331	-0.0634766
-0.0305176	-0.0317383	-0.0622559
-0.0283813	-0.0317383	-0.0601196
-0.0262451	-0.0311279	-0.057373
-0.0238037	-0.0302124	-0.0540161
-0.020752	-0.0289917	-0.0497437
-0.0167847	-0.0268555	-0.0436401
-0.0125122	-0.0238037	-0.0363159
-0.00854492	-0.0198364	-0.0283813
-0.00488281	-0.0152588	-0.0201416
-0.00152588	-0.00976563	-0.0112915
0.000915527	-0.00396729	-0.00305176
0.00305176	0.00183105	0.00488281
0.00457764	0.00732422	0.0119019
0.00579834	0.012207	0.0180054
0.00671387	0.0161743	0.0228882
0.00671387	0.0195313	0.0262451
0.00610352	0.0216675	0.027771
0.00640869	0.0228882	0.0292969
0.00793457	0.0231934	0.0311279
0.0109863	0.0228882	0.0338745
0.0152588	0.0216675	0.0369263
0.020752	0.0201416	0.0408936
0.0262451	0.0189209	0.045166
0.0320435	0.0180054	0.0500488
0.0378418	0.0177002	0.055542
0.0436401	0.0170898	0.06073
0.0482178	0.0164795	0.0646973
0.0518799	0.0149536	0.0668335
0.0540161	0.0125122	0.0665283
0.0546265	0.0088501	0.0634766
0.0537109	0.00366211	0.057373
0.0515747	-0.00244141	0.0491333
0.0485229	-0.00915527	0.0393677
0.0448608	-0.0158691	0.0289917
0.0408936	-0.0222778	0.0186157
0.0366211	-0.0280762	0.00854492
0.0323486	-0.0338745	-0.00152588
0.027771	-0.0390625	-0.0112915
0.0228882	-0.043335	-0.0204468
0.0167847	-0.0457764	-0.0289917
0.010376	-0.0466919	-0.0363159
0.00335693	-0.0466919	-0.043335
-0.00427246	-0.0460815	-0.050354
-0.0109863	-0.045166	-0.0561523
-0.0167847	-0.0442505	-0.0610352
-0.0216675	-0.0439453	-0.0656128
-0.0262451	-0.0436401	-0.0698853
-0.0296021	-0.0436401	-0.0732422
-0.0323486	-0.0439453	-0.0762939
-0.0338745	-0.0442505	-0.078125
-0.0344849	-0.0448608	-0.0793457
-0.0350952	-0.0457764	-0.0808716
-0.0354004	-0.0466919	-0.0820923
-0.0357056	-0.0479126	-0.0836182
-0.0360107	-0.0488281	-0.0848389
-0.0369263	-0.0497437	-0.0866699
-0.038147	-0.050354	-0.088501
-0.0390625	-0.0506592	-0.0897217
-0.0396729	-0.0506592	-0.090332
-0.0402832	-0.050354	-0.0906372
-0.0402832	-0.0500488	-0.090332
-0.0396729	-0.0500488	-0.0897217
-0.0387573	-0.0494385	-0.0881958
-0.0378418	-0.0491333	-0.0869751
-0.0366211	-0.0488281	-0.0854492
-0.0354004	-0.0488281	-0.0842285
-0.0350952	-0.0494385	-0.0845337
-0.0354004	-0.0497437	-0.085144
-0.0363159	-0.050354	-0.0866699
-0.0369263	-0.0509644	-0.0878906
-0.0372314	-0.0512695	-0.088501
-0.0378418	-0.0518799	-0.0897217
-0.038147	-0.0521851	-0.090332
-0.0387573	-0.0524902	-0.0912476
-0.0387573	-0.0531006	-0.0918579
-0.0384521	-0.0537109	-0.0921631
-0.0372314	-0.0543213	-0.0915527
-0.0363159	-0.0546265	-0.0909424
-0.0350952	-0.0543213	-0.0894165
-0.0344849	-0.0540161	-0.088501
-0.0338745	-0.0534058	-0.0872803
-0.0335693	-0.0531006	-0.0866699
-0.0335693	-0.0524902	-0.0860596
-0.0332642	-0.0518799	-0.085144
-0.0326538	-0.0506592	-0.083313
-0.0320435	-0.0497437	-0.0817871
-0.0317383	-0.0485229	-0.0802612
-0.0308228	-0.0479126	-0.0787354
-0.0302124	-0.0473022	-0.0775146
-0.0296021	-0.0469971	-0.0765991
-0.0289917	-0.0469971	-0.0759888
-0.0286865	-0.0479126	-0.0765991
-0.0280762	-0.0491333	-0.0772095
-0.0280762	-0.050354	-0.0784302
-0.0286865	-0.0512695	-0.0799561
-0.0296021	-0.0518799	-0.0814819
-0.0311279	-0.0518799	-0.0830078
-0.0326538	-0.0512695	-0.0839233
-0.0338745	-0.0488281	-0.0827026
-0.0335693	-0.043335	-0.0769043
-0.0308228	-0.0360107	-0.0668335
-0.0271606	-0.0259399	-0.0531006
-0.0219727	-0.0140381	-0.0360107
-0.0137329	-0.00152588	-0.0152588
-0.000915527	0.00976563	0.0088501
0.0189209	0.0186157	0.0375366
0.0457764	0.0231934	0.0689697
0.0790405	0.0231934	0.102234
0.118408	0.0186157	0.137024
0.16449	0.0106812	0.175171
0.214844	-0.000610352	0.214233
0.267639	-0.0177002	0.249939
0.320129	-0.0445557	0.275574
0.368958	-0.0811768	0.287781
0.409546	-0.123291	0.286255
0.436096	-0.16449	0.271606
0.444031	-0.201721	0.24231
0.430298	-0.234375	0.195923
0.395203	-0.26001	0.135193
0.339966	-0.276184	0.0637817
0.26825	-0.279541	-0.0112915
0.186462	-0.26947	-0.0830078
0.101624	-0.245667	-0.144043
0.0210571	-0.210571	-0.189514
-0.0488281	-0.167236	-0.216064
-0.103149	-0.120544	-0.223694
-0.138855	-0.0759888	-0.214844
-0.153809	-0.038147	-0.191956
-0.149841	-0.010376	-0.160217
-0.13031	0.00640869	-0.123901
-0.100403	0.0128174	-0.0875854
-0.065918	0.00915527	-0.0567627
-0.0317383	-0.00183105	-0.0335693
-0.00305176	-0.0167847	-0.0198364
0.0183105	-0.0332642	-0.0149536
0.0314331	-0.0479126	-0.0164795
0.0363159	-0.0588989	-0.022583
0.0350952	-0.0653076	-0.0302124
0.0299072	-0.0683594	-0.0384521
0.0228882	-0.0683594	-0.0454712
0.0158691	-0.0665283	-0.0506592
0.00946045	-0.0637817	-0.0543213
0.00518799	-0.06073	-0.055542
0.00274658	-0.0579834	-0.0552368
0.00213623	-0.0564575	-0.0543213
0.00274658	-0.055542	-0.0527954
0.00335693	-0.055542	-0.0521851
0.00457764	-0.0558472	-0.0512695
0.00549316	-0.0564575	-0.0509644
0.00610352	-0.0570679	-0.0509644
0.00640869	-0.0576782	-0.0512695
0.00671387	-0.0579834	-0.0512695
0.00762939	-0.0585938	-0.0509644
0.00854492	-0.0592041	-0.0506592
0.00976563	-0.0598145	-0.0500488
0.0109863	-0.0601196	-0.0491333
0.012207	-0.0610352	-0.0488281
0.0143433	-0.0616455	-0.0473022
0.0164795	-0.0622559	-0.0457764
0.0183105	-0.062561	-0.0442505
0.0201416	-0.0628662	-0.0427246
0.0219727	-0.0628662	-0.0408936
0.0234985	-0.0628662	-0.0393677
0.0247192	-0.0622559	-0.0375366
0.0253296	-0.0613403	-0.0360107
0.0250244	-0.0598145	-0.03479
0.0247192	-0.0585938	-0.0338745
0.0247192	-0.0579834	-0.0332642
0.0247192	-0.0582886	-0.0335693
0.0253296	-0.0582886	-0.032959
0.0259399	-0.0585938	-0.0326538
0.0256348	-0.0595093	-0.0338745
0.0253296	-0.0604248	-0.0350952
0.0265503	-0.0616455	-0.0350952
0.0283813	-0.062561	-0.0341797
0.0305176	-0.0628662	-0.0323486
0.0326538	-0.062561	-0.0299072
0.03479	-0.0622559	-0.0274658
0.0369263	-0.0619507	-0.0250244
0.0390625	-0.0613403	-0.0222778
0.0421143	-0.06073	-0.0186157
0.0448608	-0.0601196	-0.0152588
0.0476074	-0.0595093	-0.0119019
0.0497437	-0.0592041	-0.00946045
0.0512695	-0.0595093	-0.00823975
0.0531006	-0.0598145	-0.00671387
0.0543213	-0.0604248	-0.00610352
0.0552368	-0.0604248	-0.00518799
0.055542	-0.0604248	-0.00488281
0.0567627	-0.0604248	-0.00366211
0.0582886	-0.0601196	-0.00183105
0.0595093	-0.0595093	0
0.0598145	-0.0585938	0.0012207
0.0604248	-0.0579834	0.00244141
0.0619507	-0.057373	0.00457764
0.0646973	-0.057373	0.00732422
0.067749	-0.0576782	0.0100708
0.0704956	-0.0582886	0.012207
0.072937	-0.0592041	0.0137329
0.0756836	-0.0601196	0.015564
0.0784302	-0.0613403	0.0170898
0.0817871	-0.0628662	0.0189209
0.0845337	-0.0646973	0.0198364
0.0866699	-0.065918	0.020752
0.0891113	-0.0668335	0.0222778
0.0918579	-0.0674438	0.0244141
0.0949097	-0.0680542	0.0268555
0.0976563	-0.0680542	0.0296021
0.100708	-0.067749	0.032959
0.103455	-0.067749	0.0357056
0.106506	-0.067749	0.0387573
0.110168	-0.0680542	0.0421143
0.114441	-0.0680542	0.0463867
0.119019	-0.0680542	0.0509644
0.122986	-0.0683594	0.0546265
0.126343	-0.0686646	0.0576782
0.129089	-0.0692749	0.0598145
0.132141	-0.0698853	0.0622559
0.135498	-0.0708008	0.0646973
0.138855	-0.0720215	0.0668335
0.142517	-0.0732422	0.0692749
0.146179	-0.0744629	0.0717163
0.150146	-0.0759888	0.0741577
0.154724	-0.0772095	0.0775146
0.159607	-0.0787354	0.0808716
0.1651	-0.0805664	0.0845337
0.169983	-0.0823975	0.0875854
0.174561	-0.0842285	0.090332
0.179138	-0.0854492	0.093689
0.184021	-0.0866699	0.0973511
0.189819	-0.0878906	0.101929
0.194702	-0.0891113	0.105591
0.198669	-0.090332	0.108337
0.201721	-0.0912476	0.110474
0.205383	-0.0921631	0.11322
0.209961	-0.0930786	0.116882
0.215454	-0.093689	0.121765
0.221558	-0.0946045	0.126953
0.228271	-0.09552	0.132751
0.234375	-0.0961304	0.138245
0.240784	-0.0964355	0.144348
0.246887	-0.0967407	0.150146
0.253601	-0.0967407	0.15686
0.260315	-0.0961304	0.164185
0.266724	-0.0958252	0.170898
0.272827	-0.0961304	0.176697
0.27832	-0.0970459	0.181274
0.282898	-0.0982666	0.184631
0.286865	-0.0994873	0.187378
0.289917	-0.100098	0.189819
0.292969	-0.100708	0.192261
0.296021	-0.101318	0.194702
0.298767	-0.101318	0.197449
0.300598	-0.101013	0.199585
0.301514	-0.0997925	0.201721
0.301819	-0.0976563	0.204163
0.300598	-0.0946045	0.205994
0.298157	-0.090332	0.207825
0.293884	-0.085144	0.20874
0.288086	-0.0790405	0.209045
0.280457	-0.0726318	0.207825
0.271301	-0.0656128	0.205688
0.260315	-0.0585938	0.201721
0.247803	-0.0518799	0.195923
0.234375	-0.045166	0.189209
0.220337	-0.0384521	0.181885
0.205383	-0.0320435	0.17334
0.189819	-0.0262451	0.163574
0.174255	-0.0213623	0.152893
0.158386	-0.0167847	0.141602
0.142212	-0.0125122	0.1297
0.126038	-0.0088501	0.117188
0.110474	-0.00579834	0.104675
0.09552	-0.00305176	0.0924683
0.0811768	-0.000915527	0.0802612
0.0674438	0.0012207	0.0686646
0.0543213	0.00305176	0.057373
0.0421143	0.00457764	0.0466919
0.0311279	0.00549316	0.0366211
0.0210571	0.00610352	0.0271606
0.0115967	0.00610352	0.0177002
0.00335693	0.00610352	0.00946045
-0.00427246	0.00610352	0.00183105
-0.0115967	0.00640869	-0.00518799
-0.0189209	0.00610352	-0.0128174
-0.0244141	0.00549316	-0.0189209
-0.0286865	0.00396729	-0.0247192
-0.032959	0.00213623	-0.0308228
-0.0369263	0.000610352	-0.0363159
-0.0405884	-0.000610352	-0.0411987
-0.0430298	-0.00152588	-0.0445557
-0.0448608	-0.00274658	-0.0476074
-0.0463867	-0.00427246	-0.0506592
-0.0476074	-0.00549316	-0.0531006
-0.0494385	-0.00579834	-0.0552368
-0.0506592	-0.00579834	-0.0564575
-0.0518799	-0.00518799	-0.0570679
-0.0524902	-0.00488281	-0.057373
-0.0531006	-0.00457764	-0.0576782
-0.0537109	-0.00427246	-0.0579834
-0.0540161	-0.00427246	-0.0582886
-0.0543213	-0.00427246	-0.0585938
-0.0540161	-0.00488281	-0.0588989
-0.0531006	-0.00610352	-0.0592041
-0.0515747	-0.00732422	-0.0588989
-0.0497437	-0.00823975	-0.0579834
-0.0476074	-0.00946045	-0.0570679
-0.0457764	-0.0106812	-0.0564575
-0.0439453	-0.012207	-0.0561523
-0.0418091	-0.0137329	-0.055542
-0.039978	-0.0149536	-0.0549316
-0.038147	-0.0158691	-0.0540161
-0.0366211	-0.0158691	-0.0524902
-0.0354004	-0.0158691	-0.0512695
-0.03479	-0.0152588	-0.0500488
-0.0341797	-0.0143433	-0.0485229
-0.0338745	-0.0131226	-0.0469971
-0.0338745	-0.0119019	-0.0457764
-0.0341797	-0.010376	-0.0445557
-0.0350952	-0.00915527	-0.0442505
-0.0357056	-0.00823975	-0.0439453
-0.0350952	-0.00793457	-0.0430298
-0.0341797	-0.00823975	-0.0424194
-0.0332642	-0.0088501	-0.0421143
-0.0320435	-0.00976563	-0.0418091
-0.0299072	-0.0106812	-0.0405884
-0.0274658	-0.0112915	-0.0387573
-0.0250244	-0.0115967	-0.0366211
-0.0228882	-0.0115967	-0.0344849
-0.020752	-0.0112915	-0.0320435
-0.0189209	-0.010376	-0.0292969
-0.017395	-0.00976563	-0.0271606
-0.0167847	-0.00915527	-0.0259399
-0.0177002	-0.00823975	-0.0259399
-0.0192261	-0.00762939	-0.0268555
-0.0210571	-0.00701904	-0.0280762
-0.022583	-0.00671387	-0.0292969
-0.0241089	-0.00640869	-0.0305176
-0.0253296	-0.00610352	-0.0314331
-0.0262451	-0.00610352	-0.0323486
-0.0265503	-0.00640869	-0.032959
-0.0262451	-0.00701904	-0.0332642
-0.0250244	-0.00732422	-0.0323486
-0.0228882	-0.00732422	-0.0302124
-0.0210571	-0.00732422	-0.0283813
-0.0195313	-0.00671387	-0.0262451
-0.0186157	-0.00610352	-0.0247192
-0.0177002	-0.00549316	-0.0231934
-0.0177002	-0.00457764	-0.0222778
-0.0186157	-0.00366211	-0.0222778
-0.0210571	-0.00244141	-0.0234985
-0.0231934	-0.0012207	-0.0244141
-0.0250244	-0.000915527	-0.0259399
-0.0265503	-0.0012207	-0.027771
-0.0280762	-0.00183105	-0.0299072
-0.0296021	-0.00244141	-0.0320435
-0.0302124	-0.00335693	-0.0335693
-0.0302124	-0.00457764	-0.03479
-0.0292969	-0.00549316	-0.03479
-0.0286865	-0.00671387	-0.0354004
-0.027771	-0.00732422	-0.0350952
-0.0271606	-0.00762939	-0.03479
-0.0265503	-0.00732422	-0.0338745
-0.0268555	-0.00732422	-0.0341797
-0.0271606	-0.00732422	-0.0344849
-0.0280762	-0.00732422	-0.0354004
-0.0296021	-0.00793457	-0.0375366
-0.0311279	-0.00854492	-0.0396729
-0.0323486	-0.00915527	-0.0415039
-0.0338745	-0.00976563	-0.0436401
-0.0363159	-0.00976563	-0.0460815
-0.0390625	-0.0100708	-0.0491333
-0.0405884	-0.0100708	-0.0506592
-0.0408936	-0.0100708	-0.0509644
-0.0402832	-0.00976563	-0.0500488
-0.0402832	-0.00915527	-0.0494385
-0.039978	-0.00854492	-0.0485229
-0.0396729	-0.00854492	-0.0482178
-0.0387573	-0.00915527	-0.0479126
-0.038147	-0.010376	-0.0485229
-0.0372314	-0.0115967	-0.0488281
-0.0363159	-0.0131226	-0.0494385
-0.0363159	-0.0143433	-0.0506592
-0.0372314	-0.0158691	-0.0531006
-0.0384521	-0.0170898	-0.055542
-0.039978	-0.0177002	-0.0576782
-0.0418091	-0.0183105	-0.0601196
-0.0436401	-0.0180054	-0.0616455
-0.0448608	-0.017395	-0.0622559
-0.0457764	-0.0164795	-0.0622559
-0.0460815	-0.015564	-0.0616455
-0.0454712	-0.0149536	-0.0604248
-0.0445557	-0.0146484	-0.0592041
-0.0436401	-0.0146484	-0.0582886
-0.0430298	-0.0149536	-0.0579834
-0.0424194	-0.015564	-0.0579834
-0.0418091	-0.0164795	-0.0582886
-0.0405884	-0.0177002	-0.0582886
-0.039978	-0.0186157	-0.0585938
-0.039978	-0.0195313	-0.0595093
-0.039978	-0.0201416	-0.0601196
-0.039978	-0.0204468	-0.0604248
-0.0402832	-0.0201416	-0.0604248
-0.0402832	-0.0195313	-0.0598145
-0.039978	-0.0192261	-0.0592041
-0.0393677	-0.0189209	-0.0582886
-0.0390625	-0.0186157	-0.0576782
-0.0387573	-0.0186157	-0.057373
-0.0387573	-0.0189209	-0.0576782
-0.0393677	-0.0189209	-0.0582886
-0.0396729	-0.0195313	-0.0592041
-0.0396729	-0.0201416	-0.0598145
-0.0393677	-0.0210571	-0.0604248
-0.0393677	-0.0219727	-0.0613403
-0.039978	-0.0216675	-0.0616455
-0.039978	-0.0210571	-0.0610352
-0.0393677	-0.0204468	-0.0598145
-0.0384521	-0.0195313	-0.0579834
-0.0372314	-0.0186157	-0.0558472
-0.0357056	-0.0170898	-0.0527954
-0.0341797	-0.0152588	-0.0494385
-0.0326538	-0.0137329	-0.0463867
-0.0311279	-0.0125122	-0.0436401
-0.0289917	-0.0112915	-0.0402832
-0.0265503	-0.00976563	-0.0363159
-0.0241089	-0.00793457	-0.0320435
-0.0216675	-0.00549316	-0.0271606
-0.0189209	-0.00213623	-0.0210571
-0.0152588	0.00152588	-0.0137329
-0.0115967	0.00579834	-0.00579834
-0.00823975	0.0106812	0.00244141
-0.00549316	0.0152588	0.00976563
-0.00274658	0.0195313	0.0167847
-0.000610352	0.0238037	0.0231934
0.000915527	0.0274658	0.0283813
0.00152588	0.0302124	0.0317383
0.00213623	0.0326538	0.03479
0.00274658	0.03479	0.0375366
0.00396729	0.0366211	0.0405884
0.00610352	0.0375366	0.0436401
0.00946045	0.0378418	0.0473022
0.0134277	0.0375366	0.0509644
0.0183105	0.0375366	0.0558472
0.0234985	0.0378418	0.0613403
0.0286865	0.038147	0.0668335
0.0338745	0.038147	0.0720215
0.0384521	0.0375366	0.0759888
0.0424194	0.0350952	0.0775146
0.0448608	0.0311279	0.0759888
0.0460815	0.0256348	0.0717163
0.0457764	0.0198364	0.0656128
0.0439453	0.0140381	0.0579834
0.0408936	0.00793457	0.0488281
0.0369263	0.00183105	0.0387573
0.0326538	-0.00366211	0.0289917
0.027771	-0.00915527	0.0186157
0.0222778	-0.0140381	0.00823975
0.0167847	-0.0180054	-0.0012207
0.010376	-0.020752	-0.010376
0.00335693	-0.0222778	-0.0189209
-0.00366211	-0.022583	-0.0262451
-0.0106812	-0.0228882	-0.0335693
-0.0177002	-0.0231934	-0.0408936
-0.0238037	-0.0231934	-0.0469971
-0.0292969	-0.0238037	-0.0531006
-0.0338745	-0.0247192	-0.0585938
-0.0384521	-0.0256348	-0.0640869
-0.0424194	-0.0265503	-0.0689697
-0.0454712	-0.0271606	-0.0726318
-0.0466919	-0.027771	-0.0744629
-0.0466919	-0.0286865	-0.0753784
-0.0466919	-0.0292969	-0.0759888
-0.0469971	-0.0296021	-0.0765991
-0.0482178	-0.0296021	-0.0778198
-0.0497437	-0.0299072	-0.0796509
-0.0500488	-0.0299072	-0.0799561
-0.0500488	-0.0299072	-0.0799561
-0.0497437	-0.0296021	-0.0793457
-0.0497437	-0.0299072	-0.0796509
-0.0500488	-0.0305176	-0.0805664
-0.0500488	-0.0314331	-0.0814819
-0.0494385	-0.0317383	-0.0811768
-0.0485229	-0.0320435	-0.0805664
-0.0473022	-0.0323486	-0.0796509
-0.0460815	-0.032959	-0.0790405
-0.0454712	-0.0335693	-0.0790405
-0.045166	-0.0341797	-0.0793457
-0.0454712	-0.03479	-0.0802612
-0.0460815	-0.03479	-0.0808716
-0.0473022	-0.0344849	-0.0817871
-0.0482178	-0.0341797	-0.0823975
-0.0488281	-0.0338745	-0.0827026
-0.0491333	-0.0335693	-0.0827026
-0.0491333	-0.0335693	-0.0827026
-0.0494385	-0.0335693	-0.0830078
-0.0491333	-0.0335693	-0.0827026
-0.0488281	-0.0335693	-0.0823975
-0.0482178	-0.0335693	-0.0817871
-0.0479126	-0.0338745	-0.0817871
-0.0473022	-0.0344849	-0.0817871
-0.0469971	-0.03479	-0.0817871
-0.0476074	-0.03479	-0.0823975
-0.0485229	-0.03479	-0.083313
-0.0491333	-0.03479	-0.0839233
-0.0491333	-0.03479	-0.0839233
-0.0488281	-0.03479	-0.0836182
-0.0488281	-0.0350952	-0.0839233
-0.0485229	-0.0350952	-0.0836182
-0.0482178	-0.0354004	-0.0836182
-0.0473022	-0.0357056	-0.0830078
-0.0466919	-0.0360107	-0.0827026
-0.0460815	-0.0363159	-0.0823975
-0.0457764	-0.0366211	-0.0823975
-0.0457764	-0.0375366	-0.083313
-0.0457764	-0.038147	-0.0839233
-0.0463867	-0.038147	-0.0845337
-0.0476074	-0.0375366	-0.085144
-0.0488281	-0.0363159	-0.085144
-0.0491333	-0.0338745	-0.0830078
-0.0488281	-0.0292969	-0.078125
-0.0476074	-0.0222778	-0.0698853
-0.045166	-0.0134277	-0.0585938
-0.0402832	-0.00213623	-0.0424194
-0.0320435	0.0109863	-0.0210571
-0.0198364	0.0238037	0.00396729
-0.00244141	0.03479	0.0323486
0.0204468	0.0430298	0.0634766
0.0494385	0.0473022	0.0967407
0.0845337	0.0473022	0.131836
0.125732	0.0439453	0.169678
0.172119	0.0375366	0.209656
0.221558	0.0265503	0.248108
0.270996	0.00671387	0.27771
0.317688	-0.0244141	0.293274
0.357971	-0.0637817	0.294189
0.387878	-0.105286	0.282593
0.401917	-0.144348	0.257568
0.396423	-0.179443	0.21698
0.369873	-0.209045	0.160828
0.323181	-0.230103	0.0930786
0.259399	-0.240479	0.0189209
0.183105	-0.238342	-0.0552368
0.100403	-0.222778	-0.122375
0.0198364	-0.195313	-0.175476
-0.0527954	-0.158386	-0.211182
-0.111694	-0.116272	-0.227966
-0.153503	-0.0738525	-0.227356
-0.175781	-0.0360107	-0.211792
-0.178528	-0.00671387	-0.185242
-0.163879	0.0125122	-0.151367
-0.137329	0.0216675	-0.115662
-0.103455	0.0216675	-0.0817871
-0.067749	0.0143433	-0.0534058
-0.0350952	0.00274658	-0.0323486
-0.00946045	-0.0100708	-0.0195313
0.00732422	-0.0219727	-0.0146484
0.0158691	-0.0314331	-0.015564
0.0170898	-0.0372314	-0.0201416
0.0128174	-0.0393677	-0.0265503
0.00549316	-0.0387573	-0.0332642
-0.00244141	-0.0366211	-0.0390625
-0.00915527	-0.0335693	-0.0427246
-0.0140381	-0.0308228	-0.0448608
-0.0170898	-0.0283813	-0.0454712
-0.0177002	-0.0271606	-0.0448608
-0.0170898	-0.0268555	-0.0439453
-0.0161743	-0.0274658	-0.0436401
-0.0146484	-0.0286865	-0.043335
-0.0134277	-0.0299072	-0.043335
-0.0115967	-0.0317383	-0.043335
-0.00946045	-0.0335693	-0.0430298
-0.00701904	-0.0354004	-0.0424194
-0.00549316	-0.0363159	-0.0418091
-0.00488281	-0.0366211	-0.0415039
-0.00457764	-0.0366211	-0.0411987
-0.00396729	-0.0363159	-0.0402832
-0.00183105	-0.0357056	-0.0375366
0.0012207	-0.0350952	-0.0338745
0.00396729	-0.0344849	-0.0305176
0.00640869	-0.0332642	-0.0268555
0.00854492	-0.0323486	-0.0238037
0.010376	-0.0314331	-0.0210571
0.012207	-0.0308228	-0.0186157
0.0143433	-0.0305176	-0.0161743
0.0161743	-0.0305176	-0.0143433
0.0177002	-0.0305176	-0.0128174
0.0183105	-0.0302124	-0.0119019
0.0189209	-0.0299072	-0.0109863
0.0198364	-0.0296021	-0.00976563
0.0201416	-0.0289917	-0.0088501
0.0204468	-0.0286865	-0.00823975
0.0204468	-0.0286865	-0.00823975
0.0204468	-0.0289917	-0.00854492
0.020752	-0.0289917	-0.00823975
0.0213623	-0.0286865	-0.00732422
0.022583	-0.0286865	-0.00610352
0.0241089	-0.0286865	-0.00457764
0.0250244	-0.0292969	-0.00427246
0.0259399	-0.0296021	-0.00366211
0.0268555	-0.0292969	-0.00244141
0.0286865	-0.0286865	0
0.0302124	-0.027771	0.00244141
0.0314331	-0.0274658	0.00396729
0.032959	-0.0271606	0.00579834
0.03479	-0.0274658	0.00732422
0.0366211	-0.027771	0.0088501
0.038147	-0.0286865	0.00946045
0.0396729	-0.0292969	0.010376
0.0421143	-0.0305176	0.0115967
0.0445557	-0.0317383	0.0128174
0.0469971	-0.032959	0.0140381
0.0488281	-0.0338745	0.0149536
0.0506592	-0.0341797	0.0164795
0.0524902	-0.0341797	0.0183105
0.0543213	-0.0338745	0.0204468
0.0558472	-0.0338745	0.0219727
0.057373	-0.0335693	0.0238037
0.0585938	-0.0335693	0.0250244
0.0604248	-0.0338745	0.0265503
0.062561	-0.0341797	0.0283813
0.0653076	-0.0350952	0.0302124
0.067749	-0.0366211	0.0311279
0.0701904	-0.038147	0.0320435
0.0726318	-0.039978	0.0326538
0.0759888	-0.0418091	0.0341797
0.0790405	-0.043335	0.0357056
0.0820923	-0.0439453	0.038147
0.0842285	-0.0442505	0.039978
0.0857544	-0.0445557	0.0411987
0.0875854	-0.0448608	0.0427246
0.090332	-0.0457764	0.0445557
0.0933838	-0.0463867	0.0469971
0.0967407	-0.0473022	0.0494385
0.100403	-0.0482178	0.0521851
0.104675	-0.0494385	0.0552368
0.109558	-0.0506592	0.0588989
0.114746	-0.0521851	0.062561
0.120239	-0.0540161	0.0662231
0.125732	-0.055542	0.0701904
0.13092	-0.0567627	0.0741577
0.136108	-0.0579834	0.078125
0.140686	-0.0588989	0.0817871
0.144958	-0.0595093	0.0854492
0.148926	-0.0601196	0.0888062
0.153198	-0.06073	0.0924683
0.157471	-0.0616455	0.0958252
0.161743	-0.062561	0.0991821
0.166321	-0.0634766	0.102844
0.171204	-0.0646973	0.106506
0.176392	-0.0662231	0.110168
0.18219	-0.067749	0.114441
0.187988	-0.0689697	0.119019
0.193481	-0.0701904	0.123291
0.198975	-0.0717163	0.127258
0.204163	-0.0732422	0.13092
0.209961	-0.0747681	0.135193
0.216064	-0.0759888	0.140076
0.221863	-0.0769043	0.144958
0.227356	-0.078125	0.149231
0.232849	-0.0787354	0.154114
0.238037	-0.0793457	0.158691
0.243835	-0.0799561	0.163879
0.249023	-0.0802612	0.168762
0.253601	-0.0802612	0.17334
0.258484	-0.0802612	0.178223
0.263062	-0.0802612	0.1828
0.267334	-0.0799561	0.187378
0.271301	-0.0799561	0.191345
0.274963	-0.0802612	0.194702
0.27832	-0.0808716	0.197449
0.281372	-0.0811768	0.200195
0.284119	-0.0817871	0.202332
0.286255	-0.0814819	0.204773
0.287476	-0.0805664	0.206909
0.287781	-0.0793457	0.208435
0.286865	-0.0775146	0.209351
0.283508	-0.0747681	0.20874
0.278015	-0.071106	0.206909
0.271606	-0.0662231	0.205383
0.264587	-0.06073	0.203857
0.255737	-0.0540161	0.201721
0.244751	-0.0469971	0.197754
0.231934	-0.039978	0.191956
0.217896	-0.032959	0.184937
0.203247	-0.0265503	0.176697
0.187378	-0.0204468	0.166931
0.171509	-0.0146484	0.15686
0.15564	-0.00915527	0.146484
0.139465	-0.00396729	0.135498
0.122986	0.000305176	0.123291
0.106506	0.00396729	0.110474
0.0906372	0.00732422	0.0979614
0.0756836	0.0100708	0.0857544
0.0610352	0.0128174	0.0738525
0.0473022	0.0152588	0.062561
0.03479	0.0177002	0.0524902
0.0231934	0.0195313	0.0427246
0.0125122	0.020752	0.0332642
0.00244141	0.0213623	0.0238037
-0.00701904	0.0213623	0.0143433
-0.015564	0.0210571	0.00549316
-0.0234985	0.020752	-0.00274658
-0.0305176	0.0198364	-0.0106812
-0.0369263	0.0189209	-0.0180054
-0.0421143	0.0180054	-0.0241089
-0.0466919	0.0170898	-0.0296021
-0.0512695	0.0161743	-0.0350952
-0.0552368	0.015564	-0.0396729
-0.0582886	0.0146484	-0.0436401
-0.06073	0.0137329	-0.0469971
-0.0631714	0.0128174	-0.050354
-0.0650024	0.012207	-0.0527954
-0.0668335	0.0115967	-0.0552368
-0.0683594	0.0109863	-0.057373
-0.0695801	0.010376	-0.0592041
-0.071106	0.00976563	-0.0613403
-0.0732422	0.00946045	-0.0637817
-0.0747681	0.00946045	-0.0653076
-0.0750732	0.00915527	-0.065918
-0.0747681	0.0088501	-0.065918
-0.0741577	0.00854492	-0.0656128
-0.0732422	0.00854492	-0.0646973
-0.0723267	0.00854492	-0.0637817
-0.071106	0.00762939	-0.0634766
-0.0701904	0.00640869	-0.0637817
-0.0695801	0.00488281	-0.0646973
-0.0689697	0.00396729	-0.0650024
-0.0683594	0.00305176	-0.0653076
-0.067749	0.00244141	-0.0653076
-0.0674438	0.00213623	-0.0653076
-0.067749	0.00183105	-0.065918
-0.0686646	0.00183105	-0.0668335
-0.0689697	0.00213623	-0.0668335
-0.0689697	0.00274658	-0.0662231
-0.0680542	0.00274658	-0.0653076
-0.0665283	0.00274658	-0.0637817
-0.0653076	0.00244141	-0.0628662
-0.0637817	0.00213623	-0.0616455
-0.062561	0.00183105	-0.06073
-0.06073	0.0012207	-0.0595093
-0.0588989	0.000305176	-0.0585938
-0.0576782	-0.000305176	-0.0579834
-0.0567627	-0.0012207	-0.0579834
-0.0558472	-0.00183105	-0.0576782
-0.0549316	-0.00244141	-0.057373
-0.0540161	-0.00274658	-0.0567627
-0.0527954	-0.00274658	-0.055542
-0.0521851	-0.00274658	-0.0549316
-0.0518799	-0.00274658	-0.0546265
-0.0515747	-0.00244141	-0.0540161
-0.0509644	-0.00213623	-0.0531006
-0.050354	-0.00152588	-0.0518799
-0.0494385	-0.000915527	-0.050354
-0.0485229	-0.000305176	-0.0488281
-0.0479126	0.000305176	-0.0476074
-0.0473022	0.000915527	-0.0463867
-0.0469971	0.00152588	-0.0454712
-0.0463867	0.00183105	-0.0445557
-0.0457764	0.00213623	-0.0436401
-0.0454712	0.00213623	-0.043335
-0.0454712	0.00213623	-0.043335
-0.045166	0.00213623	-0.0430298
-0.0442505	0.00183105	-0.0424194
-0.043335	0.00152588	-0.0418091
-0.0424194	0.000915527	-0.0415039
-0.0418091	-0.000305176	-0.0421143
-0.0418091	-0.000915527	-0.0427246
-0.0415039	-0.0012207	-0.0427246
-0.0411987	-0.00183105	-0.0430298
-0.0408936	-0.00213623	-0.0430298
-0.0411987	-0.00244141	-0.0436401
-0.0424194	-0.00274658	-0.045166
-0.0442505	-0.00274658	-0.0469971
-0.0457764	-0.00274658	-0.0485229
-0.0469971	-0.00274658	-0.0497437
-0.0476074	-0.00244141	-0.0500488
-0.0482178	-0.00213623	-0.050354
-0.0488281	-0.00152588	-0.050354
-0.0491333	-0.0012207	-0.050354
-0.0497437	-0.0012207	-0.0509644
-0.0497437	-0.00183105	-0.0515747
-0.050354	-0.00244141	-0.0527954
-0.0509644	-0.00335693	-0.0543213
-0.0509644	-0.00427246	-0.0552368
-0.0509644	-0.00549316	-0.0564575
-0.0506592	-0.00610352	-0.0567627
-0.0506592	-0.00701904	-0.0576782
-0.0506592	-0.00732422	-0.0579834
-0.050354	-0.00793457	-0.0582886
-0.050354	-0.00823975	-0.0585938
-0.050354	-0.00823975	-0.0585938
-0.0497437	-0.00793457	-0.0576782
-0.0494385	-0.00701904	-0.0564575
-0.0491333	-0.00640869	-0.055542
-0.0497437	-0.00579834	-0.055542
-0.0509644	-0.00518799	-0.0561523
-0.0527954	-0.00488281	-0.0576782
-0.0552368	-0.00488281	-0.0601196
-0.0564575	-0.00488281	-0.0613403
-0.0564575	-0.00518799	-0.0616455
-0.0564575	-0.00579834	-0.0622559
-0.0570679	-0.00671387	-0.0637817
-0.0576782	-0.00793457	-0.0656128
-0.0576782	-0.00915527	-0.0668335
-0.0570679	-0.010376	-0.0674438
-0.0567627	-0.0115967	-0.0683594
-0.0564575	-0.0125122	-0.0689697
-0.0564575	-0.0134277	-0.0698853
-0.0561523	-0.0140381	-0.0701904
-0.0564575	-0.0143433	-0.0708008
-0.0567627	-0.0146484	-0.0714111
-0.0567627	-0.0152588	-0.0720215
-0.0564575	-0.0158691	-0.0723267
-0.0558472	-0.0164795	-0.0723267
-0.0552368	-0.0167847	-0.0720215
-0.0543213	-0.017395	-0.0717163
-0.0537109	-0.0180054	-0.0717163
-0.0534058	-0.0189209	-0.0723267
-0.0534058	-0.0195313	-0.072937
-0.0537109	-0.0198364	-0.0735474
-0.0546265	-0.0198364	-0.0744629
-0.055542	-0.0198364	-0.0753784
-0.0564575	-0.0198364	-0.0762939
-0.057373	-0.0195313	-0.0769043
-0.057373	-0.0195313	-0.0769043
-0.0567627	-0.0195313	-0.0762939
-0.0558472	-0.0192261	-0.0750732
-0.0552368	-0.0192261	-0.0744629
-0.0540161	-0.0198364	-0.0738525
-0.0524902	-0.0204468	-0.072937
-0.0512695	-0.020752	-0.0720215
-0.050354	-0.020752	-0.071106
-0.0497437	-0.0204468	-0.0701904
-0.0494385	-0.0201416	-0.0695801
-0.0500488	-0.0192261	-0.0692749
-0.0512695	-0.0183105	-0.0695801
-0.0531006	-0.0170898	-0.0701904
-0.0549316	-0.0161743	-0.071106
-0.0558472	-0.015564	-0.0714111
-0.0561523	-0.0152588	-0.0714111
-0.0552368	-0.0149536	-0.0701904
-0.0543213	-0.0149536	-0.0692749
-0.0534058	-0.0152588	-0.0686646
-0.0524902	-0.0158691	-0.0683594
-0.0509644	-0.0161743	-0.0671387
-0.0485229	-0.0167847	-0.0653076
-0.0463867	-0.0170898	-0.0634766
-0.0448608	-0.0177002	-0.062561
-0.0439453	-0.0183105	-0.0622559
-0.043335	-0.0189209	-0.0622559
-0.043335	-0.0192261	-0.062561
-0.043335	-0.0192261	-0.062561
-0.0439453	-0.0192261	-0.0631714
-0.0448608	-0.0192261	-0.0640869
-0.0463867	-0.0195313	-0.065918
-0.0476074	-0.0198364	-0.0674438
-0.0482178	-0.0201416	-0.0683594
-0.0485229	-0.0201416	-0.0686646
-0.0488281	-0.0198364	-0.0686646
-0.0488281	-0.0198364	-0.0686646
-0.0485229	-0.0198364	-0.0683594
-0.0482178	-0.0201416	-0.0683594
-0.0476074	-0.0204468	-0.0680542
-0.0460815	-0.020752	-0.0668335
-0.0442505	-0.0210571	-0.0653076
-0.0427246	-0.0213623	-0.0640869
-0.0421143	-0.0213623	-0.0634766
-0.0421143	-0.0219727	-0.0640869
-0.0421143	-0.022583	-0.0646973
-0.0421143	-0.022583	-0.0646973
-0.0418091	-0.022583	-0.0643921
-0.0418091	-0.0228882	-0.0646973
-0.0421143	-0.0228882	-0.0650024
-0.0421143	-0.0228882	-0.0650024
-0.0424194	-0.022583	-0.0650024
-0.0427246	-0.0219727	-0.0646973
-0.0427246	-0.0210571	-0.0637817
-0.0421143	-0.0201416	-0.0622559
-0.0402832	-0.0189209	-0.0592041
-0.0378418	-0.0177002	-0.055542
-0.0344849	-0.0164795	-0.0509644
-0.0311279	-0.0146484	-0.0457764
-0.027771	-0.0115967	-0.0393677
-0.0241089	-0.00762939	-0.0317383
-0.020752	-0.00335693	-0.0241089
-0.0167847	0.000915527	-0.0158691
-0.0128174	0.00488281	-0.00793457
-0.00915527	0.00793457	-0.0012207
-0.00610352	0.00976563	0.00366211
-0.00335693	0.010376	0.00701904
-0.000915527	0.00976563	0.0088501
0.00244141	0.00823975	0.0106812
0.00640869	0.00579834	0.012207
0.0112915	0.00335693	0.0146484
0.0167847	0.000610352	0.017395
0.0228882	-0.00274658	0.0201416
0.0283813	-0.00549316	0.0228882
0.0332642	-0.00762939	0.0256348
0.038147	-0.00854492	0.0296021
0.0415039	-0.00762939	0.0338745
0.0427246	-0.00640869	0.0363159
0.0421143	-0.00518799	0.0369263
0.0402832	-0.00518799	0.0350952
0.0375366	-0.00640869	0.0311279
0.0344849	-0.0088501	0.0256348
0.0311279	-0.0128174	0.0183105
0.0286865	-0.0180054	0.0106812
0.0262451	-0.0250244	0.0012207
0.0241089	-0.0323486	-0.00823975
0.022583	-0.0393677	-0.0167847
0.0210571	-0.0448608	-0.0238037
0.0192261	-0.0491333	-0.0299072
0.0170898	-0.0524902	-0.0354004
0.0140381	-0.0549316	-0.0408936
0.00976563	-0.0558472	-0.0460815
0.00396729	-0.0549316	-0.0509644
-0.00396729	-0.0524902	-0.0564575
-0.0131226	-0.0485229	-0.0616455
-0.0216675	-0.0442505	-0.065918
-0.0286865	-0.039978	-0.0686646
-0.0350952	-0.0366211	-0.0717163
-0.0405884	-0.0338745	-0.0744629
-0.0457764	-0.0320435	-0.0778198
-0.0497437	-0.0308228	-0.0805664
-0.0518799	-0.0299072	-0.0817871
-0.0527954	-0.0292969	-0.0820923
-0.0527954	-0.0292969	-0.0820923
-0.0527954	-0.0296021	-0.0823975
-0.0518799	-0.0302124	-0.0820923
-0.0509644	-0.0308228	-0.0817871
-0.0506592	-0.0317383	-0.0823975
-0.0500488	-0.032959	-0.0830078
-0.0497437	-0.0341797	-0.0839233
-0.0500488	-0.0354004	-0.0854492
-0.0512695	-0.0360107	-0.0872803
-0.0527954	-0.0360107	-0.0888062
-0.0537109	-0.0360107	-0.0897217
-0.0540161	-0.0363159	-0.090332
-0.0543213	-0.0363159	-0.0906372
-0.0552368	-0.0366211	-0.0918579
-0.0561523	-0.0363159	-0.0924683
-0.0570679	-0.0363159	-0.0933838
-0.0570679	-0.0366211	-0.093689
-0.0570679	-0.0369263	-0.0939941
-0.0567627	-0.0375366	-0.0942993
-0.0561523	-0.0378418	-0.0939941
-0.0558472	-0.038147	-0.0939941
-0.0558472	-0.0384521	-0.0942993
-0.0561523	-0.0384521	-0.0946045
-0.0561523	-0.0384521	-0.0946045
-0.0570679	-0.0378418	-0.0949097
-0.0582886	-0.0372314	-0.09552
-0.0588989	-0.0372314	-0.0961304
-0.0585938	-0.0375366	-0.0961304
-0.0576782	-0.038147	-0.0958252
-0.0567627	-0.0387573	-0.09552
-0.0558472	-0.0387573	-0.0946045
-0.0549316	-0.0393677	-0.0942993
-0.0537109	-0.0402832	-0.0939941
-0.0524902	-0.0408936	-0.0933838
-0.0512695	-0.0415039	-0.0927734
-0.050354	-0.0415039	-0.0918579
-0.0497437	-0.0408936	-0.0906372
-0.0497437	-0.0402832	-0.0900269
-0.0500488	-0.0396729	-0.0897217
-0.0506592	-0.0390625	-0.0897217
-0.0512695	-0.0384521	-0.0897217
-0.0515747	-0.0384521	-0.0900269
-0.0515747	-0.038147	-0.0897217
-0.0515747	-0.0378418	-0.0894165
-0.0512695	-0.0372314	-0.088501
-0.0506592	-0.0360107	-0.0866699
-0.0500488	-0.0332642	-0.083313
-0.0482178	-0.0280762	-0.0762939
-0.0457764	-0.0204468	-0.0662231
-0.0421143	-0.0106812	-0.0527954
-0.0363159	0.000915527	-0.0354004
-0.0289917	0.0140381	-0.0149536
-0.0180054	0.0271606	0.00915527
-0.00183105	0.038147	0.0363159
0.0210571	0.0454712	0.0665283
0.0500488	0.0485229	0.0985718
0.0854492	0.0460815	0.131531
0.128174	0.0378418	0.166016
0.176392	0.0259399	0.202332
0.227661	0.00915527	0.236816
0.280457	-0.017395	0.263062
0.332642	-0.0567627	0.275879
0.380249	-0.106812	0.273438
0.417786	-0.160828	0.256958
0.439758	-0.213318	0.22644
0.44281	-0.262146	0.180664
0.423889	-0.30426	0.119629
0.383606	-0.336609	0.0469971
0.325623	-0.355835	-0.0302124
0.252686	-0.357971	-0.105286
0.170288	-0.341492	-0.171204
0.085144	-0.307617	-0.222473
0.00518799	-0.259705	-0.254517
-0.0634766	-0.202332	-0.265808
-0.115967	-0.142517	-0.258484
-0.149231	-0.0866699	-0.235901
-0.162354	-0.039978	-0.202332
-0.157471	-0.00549316	-0.162964
-0.137939	0.015564	-0.122375
-0.109558	0.0234985	-0.0860596
-0.0769043	0.0201416	-0.0567627
-0.0454712	0.0088501	-0.0366211
-0.0192261	-0.00671387	-0.0259399
-0.000610352	-0.022583	-0.0231934
0.00976563	-0.0357056	-0.0259399
0.0125122	-0.0445557	-0.0320435
0.00915527	-0.0491333	-0.039978
0.00244141	-0.0494385	-0.0469971
-0.00610352	-0.0469971	-0.0531006
-0.0140381	-0.0430298	-0.0570679
-0.0198364	-0.0387573	-0.0585938
-0.0238037	-0.0350952	-0.0588989
-0.0256348	-0.0326538	-0.0582886
-0.0256348	-0.0314331	-0.0570679
-0.0238037	-0.0317383	-0.055542
-0.0210571	-0.0323486	-0.0534058
-0.0177002	-0.0335693	-0.0512695
-0.0152588	-0.0344849	-0.0497437
-0.0128174	-0.0350952	-0.0479126
-0.0109863	-0.0360107	-0.0469971
-0.0088501	-0.0366211	-0.0454712
-0.00732422	-0.0369263	-0.0442505
-0.00610352	-0.0366211	-0.0427246
-0.00457764	-0.0363159	-0.0408936
-0.00335693	-0.0360107	-0.0393677
-0.00213623	-0.0360107	-0.038147
-0.00152588	-0.0357056	-0.0372314
-0.000610352	-0.0357056	-0.0363159
0.000305176	-0.0354004	-0.0350952
0.00183105	-0.0350952	-0.0332642
0.00305176	-0.0344849	-0.0314331
0.00396729	-0.0344849	-0.0305176
0.00457764	-0.0344849	-0.0299072
0.00518799	-0.0350952	-0.0299072
0.00579834	-0.0354004	-0.0296021
0.00640869	-0.0360107	-0.0296021
0.00701904	-0.0360107	-0.0289917
0.00762939	-0.0360107	-0.0283813
0.00793457	-0.0363159	-0.0283813
0.00854492	-0.0366211	-0.0280762
0.00915527	-0.0366211	-0.0274658
0.0100708	-0.0363159	-0.0262451
0.0106812	-0.0360107	-0.0253296
0.0115967	-0.0354004	-0.0238037
0.0131226	-0.03479	-0.0216675
0.0149536	-0.03479	-0.0198364
0.0164795	-0.0350952	-0.0186157
0.0183105	-0.0350952	-0.0167847
0.0201416	-0.0354004	-0.0152588
0.022583	-0.0354004	-0.0128174
0.0247192	-0.0354004	-0.0106812
0.0265503	-0.0354004	-0.0088501
0.027771	-0.0354004	-0.00762939
0.0289917	-0.0354004	-0.00640869
0.0302124	-0.0354004	-0.00518799
0.0317383	-0.0357056	-0.00396729
0.0335693	-0.0357056	-0.00213623
0.0354004	-0.0363159	-0.000915527
0.0375366	-0.0372314	0.000305176
0.0396729	-0.0384521	0.0012207
0.0421143	-0.0393677	0.00274658
0.0448608	-0.0405884	0.00427246
0.0476074	-0.0415039	0.00610352
0.0500488	-0.0424194	0.00762939
0.0518799	-0.0427246	0.00915527
0.0531006	-0.0430298	0.0100708
0.0537109	-0.0427246	0.0109863
0.0537109	-0.0427246	0.0109863
0.0546265	-0.0427246	0.0119019
0.0558472	-0.0427246	0.0131226
0.057373	-0.043335	0.0140381
0.0592041	-0.0439453	0.0152588
0.0613403	-0.045166	0.0161743
0.0650024	-0.0463867	0.0186157
0.0689697	-0.0479126	0.0210571
0.0732422	-0.0494385	0.0238037
0.0778198	-0.0506592	0.0271606
0.0823975	-0.0515747	0.0308228
0.0872803	-0.0521851	0.0350952
0.0915527	-0.0527954	0.0387573
0.0958252	-0.0531006	0.0427246
0.0994873	-0.0537109	0.0457764
0.103149	-0.0543213	0.0488281
0.106506	-0.0552368	0.0512695
0.110168	-0.0561523	0.0540161
0.113831	-0.0570679	0.0567627
0.117493	-0.0576782	0.0598145
0.12085	-0.0582886	0.062561
0.124512	-0.0592041	0.0653076
0.128174	-0.0604248	0.067749
0.132446	-0.0619507	0.0704956
0.136414	-0.0634766	0.072937
0.140686	-0.0650024	0.0756836
0.144958	-0.0665283	0.0784302
0.149841	-0.0680542	0.0817871
0.154724	-0.0701904	0.0845337
0.160522	-0.0720215	0.088501
0.166626	-0.0735474	0.0930786
0.173035	-0.0750732	0.0979614
0.179749	-0.0762939	0.103455
0.186157	-0.0778198	0.108337
0.192566	-0.0787354	0.113831
0.198975	-0.0799561	0.119019
0.205688	-0.0805664	0.125122
0.212097	-0.0814819	0.130615
0.218201	-0.0820923	0.136108
0.223694	-0.0827026	0.140991
0.228882	-0.0839233	0.144958
0.234375	-0.085144	0.149231
0.239258	-0.0860596	0.153198
0.244141	-0.0866699	0.157471
0.249023	-0.0872803	0.161743
0.254211	-0.0875854	0.166626
0.259094	-0.0875854	0.171509
0.263977	-0.0875854	0.176392
0.26825	-0.0869751	0.181274
0.272522	-0.0872803	0.185242
0.276794	-0.088501	0.188293
0.280762	-0.0897217	0.19104
0.283813	-0.0909424	0.192871
0.28656	-0.0912476	0.195313
0.289001	-0.0912476	0.197754
0.290222	-0.0909424	0.19928
0.290833	-0.0900269	0.200806
0.290222	-0.0881958	0.202026
0.288086	-0.0854492	0.202637
0.284729	-0.0814819	0.203247
0.279541	-0.0762939	0.203247
0.273132	-0.0698853	0.203247
0.264893	-0.0628662	0.202026
0.254822	-0.0552368	0.199585
0.24292	-0.0479126	0.195007
0.229797	-0.0411987	0.188599
0.215149	-0.0350952	0.180054
0.19928	-0.0292969	0.169983
0.183105	-0.0238037	0.159302
0.166931	-0.0186157	0.148315
0.150757	-0.0140381	0.136719
0.133667	-0.00976563	0.123901
0.116577	-0.00579834	0.110779
0.100098	-0.00244141	0.0976563
0.0842285	0.000610352	0.0848389
0.0695801	0.00335693	0.072937
0.0558472	0.00549316	0.0613403
0.0430298	0.00732422	0.050354
0.0308228	0.00854492	0.0393677
0.0195313	0.00946045	0.0289917
0.0088501	0.010376	0.0192261
-0.000915527	0.0106812	0.00976563
-0.00976563	0.010376	0.000610352
-0.017395	0.0100708	-0.00732422
-0.0244141	0.00976563	-0.0146484
-0.0311279	0.00946045	-0.0216675
-0.0369263	0.00946045	-0.0274658
-0.0418091	0.00854492	-0.0332642
-0.0460815	0.00732422	-0.0387573
-0.0500488	0.00579834	-0.0442505
-0.0540161	0.00457764	-0.0494385
-0.0570679	0.00335693	-0.0537109
-0.0592041	0.00183105	-0.057373
-0.0604248	-0.000305176	-0.06073
-0.0616455	-0.00244141	-0.0640869
-0.0628662	-0.00518799	-0.0680542
-0.0634766	-0.00762939	-0.071106
-0.0643921	-0.00946045	-0.0738525
-0.0646973	-0.0106812	-0.0753784
-0.0650024	-0.0119019	-0.0769043
-0.0653076	-0.0125122	-0.0778198
-0.0650024	-0.0128174	-0.0778198
-0.0653076	-0.0131226	-0.0784302
-0.065918	-0.0128174	-0.0787354
-0.0668335	-0.0119019	-0.0787354
-0.067749	-0.0112915	-0.0790405
-0.0680542	-0.010376	-0.0784302
-0.0686646	-0.00915527	-0.0778198
-0.0689697	-0.00823975	-0.0772095
-0.0686646	-0.00732422	-0.0759888
-0.0680542	-0.00701904	-0.0750732
-0.0671387	-0.00732422	-0.0744629
-0.0662231	-0.00793457	-0.0741577
-0.0653076	-0.00854492	-0.0738525
-0.0643921	-0.00946045	-0.0738525
-0.0631714	-0.010376	-0.0735474
-0.0619507	-0.0109863	-0.072937
-0.06073	-0.0119019	-0.0726318
-0.0595093	-0.0128174	-0.0723267
-0.0585938	-0.0134277	-0.0720215
-0.0582886	-0.0137329	-0.0720215
-0.0579834	-0.0134277	-0.0714111
-0.0576782	-0.0128174	-0.0704956
-0.0567627	-0.0112915	-0.0680542
-0.0558472	-0.00946045	-0.0653076
-0.0549316	-0.00793457	-0.0628662
-0.0534058	-0.00640869	-0.0598145
-0.0521851	-0.00549316	-0.0576782
-0.0512695	-0.00457764	-0.0558472
-0.050354	-0.00427246	-0.0546265
-0.0494385	-0.00457764	-0.0540161
-0.0482178	-0.00518799	-0.0534058
-0.0466919	-0.00610352	-0.0527954
-0.0448608	-0.00701904	-0.0518799
-0.0430298	-0.00762939	-0.0506592
-0.0415039	-0.00854492	-0.0500488
-0.0405884	-0.0088501	-0.0494385
-0.039978	-0.0088501	-0.0488281
-0.0393677	-0.0088501	-0.0482178
-0.0384521	-0.0088501	-0.0473022
-0.0378418	-0.00854492	-0.0463867
-0.038147	-0.00793457	-0.0460815
-0.0387573	-0.00762939	-0.0463867
-0.0393677	-0.00701904	-0.0463867
-0.039978	-0.00732422	-0.0473022
-0.0405884	-0.00793457	-0.0485229
-0.0411987	-0.00915527	-0.050354
-0.0415039	-0.0100708	-0.0515747
-0.0415039	-0.0106812	-0.0521851
-0.0415039	-0.0109863	-0.0524902
-0.0411987	-0.0109863	-0.0521851
-0.0402832	-0.0109863	-0.0512695
-0.0393677	-0.0112915	-0.0506592
-0.038147	-0.0112915	-0.0494385
-0.0375366	-0.0109863	-0.0485229
-0.0375366	-0.0100708	-0.0476074
-0.0378418	-0.00946045	-0.0473022
-0.0384521	-0.00915527	-0.0476074
-0.0387573	-0.00946045	-0.0482178
-0.0390625	-0.00976563	-0.0488281
-0.0396729	-0.010376	-0.0500488
-0.0402832	-0.0112915	-0.0515747
-0.0411987	-0.0125122	-0.0537109
-0.0415039	-0.0137329	-0.0552368
-0.0421143	-0.0146484	-0.0567627
-0.0427246	-0.0152588	-0.0579834
-0.0430298	-0.0152588	-0.0582886
-0.0436401	-0.0149536	-0.0585938
-0.0442505	-0.0143433	-0.0585938
-0.0442505	-0.0137329	-0.0579834
-0.0442505	-0.0128174	-0.0570679
-0.0436401	-0.012207	-0.0558472
-0.0430298	-0.012207	-0.0552368
-0.0424194	-0.012207	-0.0546265
-0.0418091	-0.0128174	-0.0546265
-0.0415039	-0.0137329	-0.0552368
-0.0411987	-0.0149536	-0.0561523
-0.0405884	-0.0161743	-0.0567627
-0.0402832	-0.0177002	-0.0579834
-0.0405884	-0.0189209	-0.0595093
-0.0411987	-0.0201416	-0.0613403
-0.0421143	-0.020752	-0.0628662
-0.0430298	-0.0210571	-0.0640869
-0.0445557	-0.020752	-0.0653076
-0.0460815	-0.0201416	-0.0662231
-0.0473022	-0.0195313	-0.0668335
-0.0479126	-0.0192261	-0.0671387
-0.0479126	-0.0189209	-0.0668335
-0.0479126	-0.0186157	-0.0665283
-0.0476074	-0.0183105	-0.065918
-0.0473022	-0.0186157	-0.065918
-0.0469971	-0.0192261	-0.0662231
-0.0466919	-0.0201416	-0.0668335
-0.0460815	-0.0210571	-0.0671387
-0.0454712	-0.0219727	-0.0674438
-0.0454712	-0.0228882	-0.0683594
-0.0454712	-0.0238037	-0.0692749
-0.0454712	-0.0244141	-0.0698853
-0.045166	-0.0247192	-0.0698853
-0.0454712	-0.0247192	-0.0701904
-0.0463867	-0.0238037	-0.0701904
-0.0473022	-0.0231934	-0.0704956
-0.0479126	-0.0228882	-0.0708008
-0.0479126	-0.0222778	-0.0701904
-0.0476074	-0.0219727	-0.0695801
-0.0473022	-0.0219727	-0.0692749
-0.0466919	-0.0222778	-0.0689697
-0.0460815	-0.022583	-0.0686646
-0.045166	-0.0231934	-0.0683594
-0.0442505	-0.0241089	-0.0683594
-0.0430298	-0.0250244	-0.0680542
-0.0418091	-0.0259399	-0.067749
-0.0405884	-0.0268555	-0.0674438
-0.0396729	-0.0271606	-0.0668335
-0.0393677	-0.0271606	-0.0665283
-0.0393677	-0.0268555	-0.0662231
-0.0393677	-0.0265503	-0.065918
-0.0393677	-0.0259399	-0.0653076
-0.0393677	-0.0247192	-0.0640869
-0.0387573	-0.0234985	-0.0622559
-0.0384521	-0.022583	-0.0610352
-0.0384521	-0.0222778	-0.06073
-0.0387573	-0.0222778	-0.0610352
-0.0387573	-0.0222778	-0.0610352
-0.0390625	-0.0219727	-0.0610352
-0.0393677	-0.0222778	-0.0616455
-0.0393677	-0.0228882	-0.0622559
-0.0393677	-0.0241089	-0.0634766
-0.0393677	-0.0253296	-0.0646973
-0.0396729	-0.0265503	-0.0662231
-0.039978	-0.0271606	-0.0671387
-0.039978	-0.0280762	-0.0680542
-0.0393677	-0.0286865	-0.0680542
-0.0384521	-0.0289917	-0.0674438
-0.0378418	-0.0289917	-0.0668335
-0.0375366	-0.0286865	-0.0662231
-0.0378418	-0.0283813	-0.0662231
-0.038147	-0.027771	-0.065918
-0.038147	-0.0274658	-0.0656128
-0.0378418	-0.0271606	-0.0650024
-0.0375366	-0.0268555	-0.0643921
-0.0375366	-0.0268555	-0.0643921
-0.0378418	-0.0265503	-0.0643921
-0.0378418	-0.0265503	-0.0643921
-0.0375366	-0.0268555	-0.0643921
-0.0366211	-0.0271606	-0.0637817
-0.0357056	-0.0274658	-0.0631714
-0.03479	-0.0274658	-0.0622559
-0.0344849	-0.0274658	-0.0619507
-0.0341797	-0.0271606	-0.0613403
-0.0332642	-0.0265503	-0.0598145
-0.0323486	-0.0259399	-0.0582886
-0.0308228	-0.0253296	-0.0561523
-0.0296021	-0.0247192	-0.0543213
-0.0286865	-0.0244141	-0.0531006
-0.0283813	-0.0234985	-0.0518799
-0.0280762	-0.0228882	-0.0509644
-0.027771	-0.0222778	-0.0500488
-0.0271606	-0.0213623	-0.0485229
-0.0268555	-0.020752	-0.0476074
-0.0265503	-0.0198364	-0.0463867
-0.0265503	-0.0189209	-0.0454712
-0.0259399	-0.0183105	-0.0442505
-0.0244141	-0.0177002	-0.0421143
-0.0222778	-0.0170898	-0.0393677
-0.0195313	-0.0161743	-0.0357056
-0.0158691	-0.0149536	-0.0308228
-0.0115967	-0.0140381	-0.0256348
-0.00610352	-0.0137329	-0.0198364
-0.000305176	-0.0140381	-0.0143433
0.00579834	-0.0140381	-0.00823975
0.0112915	-0.0140381	-0.00274658
0.0164795	-0.0140381	0.00244141
0.0213623	-0.0143433	0.00701904
0.0265503	-0.0152588	0.0112915
0.0323486	-0.0161743	0.0161743
0.038147	-0.0170898	0.0210571
0.0445557	-0.017395	0.0271606
0.0509644	-0.0177002	0.0332642
0.057373	-0.0177002	0.0396729
0.0628662	-0.017395	0.0454712
0.0674438	-0.0164795	0.0509644
0.0704956	-0.015564	0.0549316
0.0723267	-0.0140381	0.0582886
0.0726318	-0.0125122	0.0601196
0.071106	-0.0115967	0.0595093
0.0683594	-0.010376	0.0579834
0.0650024	-0.00976563	0.0552368
0.0610352	-0.0100708	0.0509644
0.0570679	-0.0115967	0.0454712
0.0537109	-0.0143433	0.0393677
0.0512695	-0.0183105	0.032959
0.0500488	-0.0231934	0.0268555
0.0500488	-0.0283813	0.0216675
0.0497437	-0.0338745	0.0158691
0.0494385	-0.039978	0.00946045
0.0485229	-0.0454712	0.00305176
0.0460815	-0.0497437	-0.00366211
0.0424194	-0.0531006	-0.0106812
0.0375366	-0.0549316	-0.017395
0.0308228	-0.055542	-0.0247192
0.0228882	-0.0546265	-0.0317383
0.0137329	-0.0521851	-0.0384521
0.00457764	-0.0488281	-0.0442505
-0.00396729	-0.045166	-0.0491333
-0.012207	-0.0415039	-0.0537109
-0.0198364	-0.0375366	-0.057373
-0.0262451	-0.0341797	-0.0604248
-0.0308228	-0.0317383	-0.062561
-0.0338745	-0.0302124	-0.0640869
-0.0354004	-0.0296021	-0.0650024
-0.0360107	-0.0286865	-0.0646973
-0.0363159	-0.0283813	-0.0646973
-0.0360107	-0.0280762	-0.0640869
-0.0350952	-0.0280762	-0.0631714
-0.0341797	-0.0283813	-0.062561
-0.0332642	-0.0286865	-0.0619507
-0.032959	-0.0289917	-0.0619507
-0.032959	-0.0292969	-0.0622559
-0.0335693	-0.0296021	-0.0631714
-0.0344849	-0.0292969	-0.0637817
-0.0354004	-0.0289917	-0.0643921
-0.0363159	-0.0286865	-0.0650024
-0.0369263	-0.0283813	-0.0653076
-0.0375366	-0.0283813	-0.065918
-0.0378418	-0.0283813	-0.0662231
-0.0384521	-0.027771	-0.0662231
-0.0390625	-0.0265503	-0.0656128
-0.0396729	-0.0250244	-0.0646973
-0.0402832	-0.0231934	-0.0634766
-0.0408936	-0.0216675	-0.062561
-0.0415039	-0.020752	-0.0622559
-0.0415039	-0.0204468	-0.0619507
-0.0415039	-0.0201416	-0.0616455
-0.0408936	-0.0198364	-0.06073
-0.039978	-0.0198364	-0.0598145
-0.0387573	-0.020752	-0.0595093
-0.0372314	-0.0216675	-0.0588989
-0.0360107	-0.0228882	-0.0588989
-0.0350952	-0.0231934	-0.0582886
-0.0335693	-0.0234985	-0.0570679
-0.0317383	-0.0234985	-0.0552368
-0.0299072	-0.0234985	-0.0534058
-0.0292969	-0.0231934	-0.0524902
-0.0292969	-0.0222778	-0.0515747
-0.0299072	-0.0216675	-0.0515747
-0.0302124	-0.0213623	-0.0515747
-0.0302124	-0.0213623	-0.0515747
-0.0302124	-0.0213623	-0.0515747
-0.0305176	-0.0213623	-0.0518799
-0.0311279	-0.0219727	-0.0531006
-0.0311279	-0.0228882	-0.0540161
-0.0314331	-0.0234985	-0.0549316
-0.0317383	-0.0238037	-0.055542
-0.0323486	-0.0238037	-0.0561523
-0.0332642	-0.0228882	-0.0561523
-0.0335693	-0.0210571	-0.0546265
-0.0332642	-0.0177002	-0.0509644
-0.032959	-0.012207	-0.045166
-0.0311279	-0.00427246	-0.0354004
-0.0280762	0.00549316	-0.022583
-0.0231934	0.0170898	-0.00610352
-0.0164795	0.0299072	0.0134277
-0.00610352	0.0424194	0.0363159
0.00946045	0.0521851	0.0616455
0.0317383	0.0582886	0.0900269
0.06073	0.0598145	0.120544
0.0964355	0.055542	0.151978
0.13916	0.0457764	0.184937
0.187378	0.0323486	0.219727
0.238953	0.0143433	0.253296
0.292358	-0.0128174	0.279541
0.346069	-0.0524902	0.293579
0.396118	-0.103149	0.292969
0.436707	-0.157471	0.279236
0.461426	-0.209961	0.251465
0.466003	-0.257874	0.20813
0.447998	-0.298462	0.149536
0.40802	-0.328979	0.0790405
0.348511	-0.346069	0.00244141
0.273132	-0.345764	-0.0726318
0.188293	-0.326843	-0.13855
0.101318	-0.290833	-0.189514
0.0192261	-0.240784	-0.221558
-0.0509644	-0.18219	-0.233154
-0.10498	-0.121155	-0.226135
-0.138855	-0.0640869	-0.202942
-0.151978	-0.0164795	-0.168457
-0.146179	0.0183105	-0.127869
-0.125427	0.0393677	-0.0860596
-0.0952148	0.0469971	-0.0482178
-0.0616455	0.0430298	-0.0186157
-0.0292969	0.0305176	0.0012207
-0.00244141	0.0140381	0.0115967
0.015564	-0.00305176	0.0125122
0.0250244	-0.0177002	0.00732422
0.0265503	-0.0280762	-0.00152588
0.0222778	-0.0338745	-0.0115967
0.0152588	-0.0360107	-0.020752
0.00762939	-0.03479	-0.0271606
0.000915527	-0.0320435	-0.0311279
-0.00396729	-0.0286865	-0.0326538
-0.00671387	-0.0256348	-0.0323486
-0.00762939	-0.0234985	-0.0311279
-0.00671387	-0.0219727	-0.0286865
-0.00518799	-0.0213623	-0.0265503
-0.00274658	-0.0216675	-0.0244141
-0.000610352	-0.022583	-0.0231934
0.0012207	-0.0234985	-0.0222778
0.00244141	-0.0241089	-0.0216675
0.00305176	-0.0247192	-0.0216675
0.00366211	-0.0253296	-0.0216675
0.00457764	-0.0256348	-0.0210571
0.00610352	-0.0256348	-0.0195313
0.00732422	-0.0256348	-0.0183105
0.00854492	-0.0256348	-0.0170898
0.00976563	-0.0250244	-0.0152588
0.0112915	-0.0247192	-0.0134277
0.0128174	-0.0244141	-0.0115967
0.0143433	-0.0238037	-0.00946045
0.015564	-0.0231934	-0.00762939
0.0167847	-0.0228882	-0.00610352
0.0177002	-0.0228882	-0.00518799
0.0186157	-0.0228882	-0.00427246
0.0195313	-0.0228882	-0.00335693
0.020752	-0.0231934	-0.00244141
0.0222778	-0.0231934	-0.000915527
0.0238037	-0.0234985	0.000305176
0.0253296	-0.0238037	0.00152588
0.0262451	-0.0241089	0.00213623
0.0265503	-0.0244141	0.00213623
0.0265503	-0.0244141	0.00213623
0.0268555	-0.0250244	0.00183105
0.0268555	-0.0256348	0.0012207
0.0271606	-0.0259399	0.0012207
0.0271606	-0.0265503	0.000610352
0.0268555	-0.0268555	0
0.0265503	-0.0271606	-0.000610352
0.0262451	-0.0274658	-0.0012207
0.0262451	-0.027771	-0.00152588
0.0265503	-0.0280762	-0.00152588
0.027771	-0.0280762	-0.000305176
0.0296021	-0.0283813	0.0012207
0.0311279	-0.0280762	0.00305176
0.032959	-0.027771	0.00518799
0.0354004	-0.0274658	0.00793457
0.038147	-0.027771	0.010376
0.0411987	-0.027771	0.0134277
0.0445557	-0.0280762	0.0164795
0.0479126	-0.0286865	0.0192261
0.0509644	-0.0296021	0.0213623
0.0537109	-0.0305176	0.0231934
0.0561523	-0.0314331	0.0247192
0.0579834	-0.0320435	0.0259399
0.0592041	-0.0326538	0.0265503
0.0604248	-0.0332642	0.0271606
0.0613403	-0.0335693	0.027771
0.062561	-0.0335693	0.0289917
0.0634766	-0.0332642	0.0302124
0.0643921	-0.032959	0.0314331
0.065918	-0.0326538	0.0332642
0.0674438	-0.0326538	0.03479
0.0692749	-0.0332642	0.0360107
0.0714111	-0.0338745	0.0375366
0.0738525	-0.0350952	0.0387573
0.0769043	-0.0366211	0.0402832
0.0799561	-0.038147	0.0418091
0.083313	-0.039978	0.043335
0.0866699	-0.0421143	0.0445557
0.090332	-0.0436401	0.0466919
0.0942993	-0.0448608	0.0494385
0.0982666	-0.0454712	0.0527954
0.102234	-0.0460815	0.0561523
0.105896	-0.0460815	0.0598145
0.109558	-0.0460815	0.0634766
0.11322	-0.0463867	0.0668335
0.116882	-0.0466919	0.0701904
0.12085	-0.0469971	0.0738525
0.124817	-0.0479126	0.0769043
0.128784	-0.0485229	0.0802612
0.133667	-0.0494385	0.0842285
0.138855	-0.0509644	0.0878906
0.144348	-0.0527954	0.0915527
0.149536	-0.0552368	0.0942993
0.155334	-0.057373	0.0979614
0.161438	-0.0595093	0.101929
0.167847	-0.0616455	0.106201
0.17395	-0.0637817	0.110168
0.180359	-0.0656128	0.114746
0.186768	-0.0680542	0.118713
0.192871	-0.0701904	0.122681
0.19928	-0.0723267	0.126953
0.205994	-0.0744629	0.131531
0.212402	-0.0762939	0.136108
0.218506	-0.078125	0.140381
0.224609	-0.0793457	0.145264
0.230408	-0.0805664	0.149841
0.236511	-0.0817871	0.154724
0.24231	-0.0823975	0.159912
0.247498	-0.0827026	0.164795
0.252991	-0.0827026	0.170288
0.258179	-0.0823975	0.175781
0.263367	-0.0820923	0.181274
0.268555	-0.0814819	0.187073
0.273438	-0.0814819	0.191956
0.278931	-0.0817871	0.197144
0.284119	-0.0820923	0.202026
0.289307	-0.0823975	0.206909
0.294189	-0.0830078	0.211182
0.298767	-0.0836182	0.215149
0.30304	-0.0842285	0.218811
0.307007	-0.0845337	0.222473
0.310059	-0.0842285	0.22583
0.311584	-0.083313	0.228271
0.312195	-0.0817871	0.230408
0.311584	-0.0793457	0.232239
0.309143	-0.0762939	0.232849
0.305176	-0.0720215	0.233154
0.299072	-0.0671387	0.231934
0.291138	-0.0619507	0.229187
0.281982	-0.0564575	0.225525
0.270996	-0.050354	0.220642
0.258179	-0.0439453	0.214233
0.244446	-0.0375366	0.206909
0.229492	-0.0311279	0.198364
0.213928	-0.0250244	0.188904
0.198059	-0.0192261	0.178833
0.18158	-0.0137329	0.167847
0.1651	-0.00854492	0.156555
0.148621	-0.00366211	0.144958
0.132751	0.0012207	0.133972
0.116882	0.00549316	0.122375
0.101624	0.00946045	0.111084
0.0872803	0.0128174	0.100098
0.0732422	0.0158691	0.0891113
0.0601196	0.0186157	0.0787354
0.0473022	0.0210571	0.0683594
0.0350952	0.0228882	0.0579834
0.0238037	0.0241089	0.0479126
0.0131226	0.0247192	0.0378418
0.00335693	0.0250244	0.0283813
-0.00518799	0.0244141	0.0192261
-0.0131226	0.0234985	0.010376
-0.0204468	0.022583	0.00213623
-0.0265503	0.0213623	-0.00518799
-0.0320435	0.0201416	-0.0119019
-0.0369263	0.0192261	-0.0177002
-0.0405884	0.0180054	-0.022583
-0.043335	0.0164795	-0.0268555
-0.0457764	0.0152588	-0.0305176
-0.0479126	0.0140381	-0.0338745
-0.0497437	0.0131226	-0.0366211
-0.0509644	0.012207	-0.0387573
-0.0518799	0.0112915	-0.0405884
-0.0527954	0.0106812	-0.0421143
-0.0537109	0.00976563	-0.0439453
-0.0549316	0.00915527	-0.0457764
-0.0558472	0.00854492	-0.0473022
-0.0564575	0.00793457	-0.0485229
-0.0567627	0.00762939	-0.0491333
-0.0570679	0.00732422	-0.0497437
-0.0576782	0.00701904	-0.0506592
-0.0576782	0.00671387	-0.0509644
-0.057373	0.00610352	-0.0512695
-0.0561523	0.00549316	-0.0506592
-0.0549316	0.00518799	-0.0497437
-0.0540161	0.00488281	-0.0491333
-0.0527954	0.00518799	-0.0476074
-0.0515747	0.00518799	-0.0463867
-0.050354	0.00488281	-0.0454712
-0.0491333	0.00457764	-0.0445557
-0.0482178	0.00457764	-0.0436401
-0.0479126	0.00518799	-0.0427246
-0.0476074	0.00579834	-0.0418091
-0.0469971	0.00579834	-0.0411987
-0.0460815	0.00579834	-0.0402832
-0.0448608	0.00579834	-0.0390625
-0.0442505	0.00549316	-0.0387573
-0.0436401	0.00579834	-0.0378418
-0.0427246	0.00610352	-0.0366211
-0.0411987	0.00610352	-0.0350952
-0.0396729	0.00610352	-0.0335693
-0.0378418	0.00610352	-0.0317383
-0.0363159	0.00610352	-0.0302124
-0.03479	0.00640869	-0.0283813
-0.0335693	0.00671387	-0.0268555
-0.032959	0.00671387	-0.0262451
-0.0326538	0.00671387	-0.0259399
-0.0320435	0.00579834	-0.0262451
-0.0311279	0.00488281	-0.0262451
-0.0308228	0.00396729	-0.0268555
-0.0308228	0.00305176	-0.027771
-0.0311279	0.00213623	-0.0289917
-0.0320435	0.00183105	-0.0302124
-0.032959	0.00152588	-0.0314331
-0.0335693	0.00183105	-0.0317383
-0.0338745	0.00183105	-0.0320435
-0.0335693	0.00183105	-0.0317383
-0.0332642	0.00213623	-0.0311279
-0.032959	0.00244141	-0.0305176
-0.0326538	0.00274658	-0.0299072
-0.0323486	0.00305176	-0.0292969
-0.0311279	0.00305176	-0.0280762
-0.0292969	0.00244141	-0.0268555
-0.0280762	0.00183105	-0.0262451
-0.0268555	0.00152588	-0.0253296
-0.0262451	0.0012207	-0.0250244
-0.0253296	0.000915527	-0.0244141
-0.0250244	0.000915527	-0.0241089
-0.0250244	0.000915527	-0.0241089
-0.0256348	0.0012207	-0.0244141
-0.0259399	0.00183105	-0.0241089
-0.0265503	0.00244141	-0.0241089
-0.0271606	0.00274658	-0.0244141
-0.027771	0.00305176	-0.0247192
-0.0283813	0.00335693	-0.0250244
-0.0289917	0.00305176	-0.0259399
-0.0292969	0.00305176	-0.0262451
-0.0292969	0.00274658	-0.0265503
-0.0289917	0.00244141	-0.0265503
-0.0286865	0.00213623	-0.0265503
-0.0289917	0.00183105	-0.0271606
-0.0299072	0.00152588	-0.0283813
-0.0302124	0.0012207	-0.0289917
-0.0302124	0.000915527	-0.0292969
-0.0299072	0	-0.0299072
-0.0296021	-0.000915527	-0.0305176
-0.0299072	-0.00213623	-0.0320435
-0.0308228	-0.00335693	-0.0341797
-0.0317383	-0.00427246	-0.0360107
-0.0320435	-0.00488281	-0.0369263
-0.0320435	-0.00579834	-0.0378418
-0.0323486	-0.00671387	-0.0390625
-0.032959	-0.00732422	-0.0402832
-0.0338745	-0.00793457	-0.0418091
-0.03479	-0.00793457	-0.0427246
-0.03479	-0.00793457	-0.0427246
-0.03479	-0.00793457	-0.0427246
-0.03479	-0.00732422	-0.0421143
-0.0354004	-0.00671387	-0.0421143
-0.0360107	-0.00640869	-0.0424194
-0.0360107	-0.00610352	-0.0421143
-0.0357056	-0.00610352	-0.0418091
-0.0350952	-0.00610352	-0.0411987
-0.03479	-0.00640869	-0.0411987
-0.0350952	-0.00701904	-0.0421143
-0.0357056	-0.00762939	-0.043335
-0.0366211	-0.00823975	-0.0448608
-0.0375366	-0.0088501	-0.0463867
-0.038147	-0.00946045	-0.0476074
-0.0387573	-0.0100708	-0.0488281
-0.0390625	-0.0106812	-0.0497437
-0.0396729	-0.0112915	-0.0509644
-0.039978	-0.0112915	-0.0512695
-0.0402832	-0.0115967	-0.0518799
-0.0402832	-0.0115967	-0.0518799
-0.039978	-0.0112915	-0.0512695
-0.0390625	-0.0112915	-0.050354
-0.0384521	-0.0112915	-0.0497437
-0.0378418	-0.0115967	-0.0494385
-0.0375366	-0.0115967	-0.0491333
-0.0375366	-0.0115967	-0.0491333
-0.0378418	-0.0119019	-0.0497437
-0.0378418	-0.0119019	-0.0497437
-0.038147	-0.0119019	-0.0500488
-0.0384521	-0.012207	-0.0506592
-0.0384521	-0.0125122	-0.0509644
-0.0387573	-0.0128174	-0.0515747
-0.0387573	-0.0134277	-0.0521851
-0.0387573	-0.0140381	-0.0527954
-0.0387573	-0.0143433	-0.0531006
-0.0387573	-0.0152588	-0.0540161
-0.0393677	-0.0161743	-0.055542
-0.0396729	-0.0170898	-0.0567627
-0.0396729	-0.0177002	-0.057373
-0.0393677	-0.0180054	-0.057373
-0.0390625	-0.0183105	-0.057373
-0.0387573	-0.0183105	-0.0570679
-0.038147	-0.0180054	-0.0561523
-0.0375366	-0.0180054	-0.055542
-0.0366211	-0.0180054	-0.0546265
-0.0357056	-0.0183105	-0.0540161
-0.0350952	-0.0183105	-0.0534058
-0.0350952	-0.0180054	-0.0531006
-0.0354004	-0.0180054	-0.0534058
-0.0360107	-0.0180054	-0.0540161
-0.0366211	-0.0180054	-0.0546265
-0.0372314	-0.0183105	-0.055542
-0.0378418	-0.0183105	-0.0561523
-0.0384521	-0.0183105	-0.0567627
-0.0384521	-0.0183105	-0.0567627
-0.0378418	-0.0180054	-0.0558472
-0.0372314	-0.0177002	-0.0549316
-0.0372314	-0.0177002	-0.0549316
-0.0369263	-0.0180054	-0.0549316
-0.0366211	-0.0186157	-0.0552368
-0.0360107	-0.0192261	-0.0552368
-0.0357056	-0.0195313	-0.0552368
-0.0357056	-0.0201416	-0.0558472
-0.0357056	-0.0204468	-0.0561523
-0.0360107	-0.0210571	-0.0570679
-0.0357056	-0.0216675	-0.057373
-0.0350952	-0.0228882	-0.0579834
-0.03479	-0.0238037	-0.0585938
-0.0341797	-0.0241089	-0.0582886
-0.0338745	-0.0241089	-0.0579834
-0.0335693	-0.0241089	-0.0576782
-0.0332642	-0.0241089	-0.057373
-0.032959	-0.0241089	-0.0570679
-0.0323486	-0.0241089	-0.0564575
-0.0317383	-0.0241089	-0.0558472
-0.0311279	-0.0241089	-0.0552368
-0.0311279	-0.0241089	-0.0552368
-0.0305176	-0.0238037	-0.0543213
-0.0299072	-0.0234985	-0.0534058
-0.0286865	-0.0228882	-0.0515747
-0.0274658	-0.0222778	-0.0497437
-0.0259399	-0.0216675	-0.0476074
-0.0238037	-0.020752	-0.0445557
-0.0219727	-0.0198364	-0.0418091
-0.0198364	-0.0189209	-0.0387573
-0.0177002	-0.0180054	-0.0357056
-0.0149536	-0.017395	-0.0323486
-0.0112915	-0.0170898	-0.0283813
-0.00701904	-0.0170898	-0.0241089
-0.00244141	-0.0177002	-0.0201416
0.00244141	-0.0180054	-0.015564
0.00701904	-0.0183105	-0.0112915
0.0112915	-0.0183105	-0.00701904
0.0149536	-0.0177002	-0.00274658
0.0186157	-0.017395	0.0012207
0.0222778	-0.0167847	0.00549316
0.0268555	-0.0164795	0.010376
0.0320435	-0.0158691	0.0161743
0.0372314	-0.0152588	0.0219727
0.0430298	-0.0152588	0.027771
0.0494385	-0.0158691	0.0335693
0.055542	-0.0167847	0.0387573
0.06073	-0.0170898	0.0436401
0.0646973	-0.0167847	0.0479126
0.0671387	-0.0161743	0.0509644
0.067749	-0.015564	0.0521851
0.0668335	-0.0149536	0.0518799
0.0637817	-0.0140381	0.0497437
0.0598145	-0.0131226	0.0466919
0.0549316	-0.0128174	0.0421143
0.0500488	-0.0134277	0.0366211
0.0463867	-0.0158691	0.0305176
0.0442505	-0.0195313	0.0247192
0.0430298	-0.0244141	0.0186157
0.0430298	-0.0302124	0.0128174
0.0439453	-0.0369263	0.00701904
0.0445557	-0.043335	0.0012207
0.0442505	-0.0488281	-0.00457764
0.043335	-0.0531006	-0.00976563
0.0408936	-0.0561523	-0.0152588
0.0372314	-0.057373	-0.0201416
0.0314331	-0.0570679	-0.0256348
0.0234985	-0.0549316	-0.0314331
0.0143433	-0.0512695	-0.0369263
0.00488281	-0.0466919	-0.0418091
-0.00457764	-0.0421143	-0.0466919
-0.0131226	-0.0378418	-0.0509644
-0.0201416	-0.0335693	-0.0537109
-0.0259399	-0.0302124	-0.0561523
-0.0302124	-0.0274658	-0.0576782
-0.0332642	-0.0253296	-0.0585938
-0.0354004	-0.0241089	-0.0595093
-0.0360107	-0.0238037	-0.0598145
-0.0357056	-0.0238037	-0.0595093
-0.03479	-0.0244141	-0.0592041
-0.0338745	-0.0250244	-0.0588989
-0.0332642	-0.0256348	-0.0588989
-0.032959	-0.0256348	-0.0585938
-0.032959	-0.0253296	-0.0582886
-0.032959	-0.0250244	-0.0579834
-0.032959	-0.0247192	-0.0576782
-0.032959	-0.0244141	-0.057373
-0.0332642	-0.0238037	-0.0570679
-0.0332642	-0.0234985	-0.0567627
-0.0326538	-0.0234985	-0.0561523
-0.0320435	-0.0234985	-0.055542
-0.0317383	-0.0231934	-0.0549316
-0.0317383	-0.0228882	-0.0546265
-0.0320435	-0.022583	-0.0546265
-0.0320435	-0.0219727	-0.0540161
-0.0326538	-0.0216675	-0.0543213
-0.0335693	-0.0213623	-0.0549316
-0.0344849	-0.020752	-0.0552368
-0.0350952	-0.0201416	-0.0552368
-0.0350952	-0.0192261	-0.0543213
-0.0354004	-0.0186157	-0.0540161
-0.0354004	-0.0180054	-0.0534058
-0.0354004	-0.0177002	-0.0531006
-0.0354004	-0.0177002	-0.0531006
-0.03479	-0.017395	-0.0521851
-0.0338745	-0.017395	-0.0512695
-0.032959	-0.0167847	-0.0497437
-0.0323486	-0.0161743	-0.0485229
-0.0314331	-0.0158691	-0.0473022
-0.0305176	-0.015564	-0.0460815
-0.0296021	-0.015564	-0.045166
-0.0289917	-0.015564	-0.0445557
-0.0283813	-0.0158691	-0.0442505
-0.027771	-0.0164795	-0.0442505
-0.0274658	-0.017395	-0.0448608
-0.0271606	-0.0186157	-0.0457764
-0.0271606	-0.0195313	-0.0466919
-0.0274658	-0.0204468	-0.0479126
-0.0280762	-0.0213623	-0.0494385
-0.0283813	-0.0219727	-0.050354
-0.0292969	-0.0213623	-0.0506592
-0.0302124	-0.0204468	-0.0506592
-0.0311279	-0.0183105	-0.0494385
-0.0317383	-0.0149536	-0.0466919
-0.0320435	-0.00946045	-0.0415039
-0.0314331	-0.00213623	-0.0335693
-0.0286865	0.00732422	-0.0213623
-0.0234985	0.0186157	-0.00488281
-0.015564	0.0305176	0.0149536
-0.00396729	0.0418091	0.0378418
0.0131226	0.050354	0.0634766
0.0369263	0.0549316	0.0918579
0.0671387	0.0552368	0.122375
0.10376	0.0512695	0.155029
0.146484	0.0439453	0.19043
0.194397	0.0335693	0.227966
0.245361	0.0186157	0.263977
0.296326	-0.00488281	0.291443
0.344238	-0.0390625	0.305176
0.386047	-0.0805664	0.305481
0.41687	-0.123596	0.293274
0.431519	-0.162659	0.26886
0.426025	-0.196838	0.229187
0.39917	-0.224304	0.174866
0.352783	-0.243835	0.108948
0.289307	-0.252075	0.0372314
0.213318	-0.246582	-0.0332642
0.131836	-0.227356	-0.09552
0.0512695	-0.195618	-0.144348
-0.0213623	-0.154114	-0.175476
-0.0811768	-0.107727	-0.188904
-0.123291	-0.0613403	-0.184631
-0.145569	-0.0201416	-0.16571
-0.14801	0.012207	-0.135803
-0.134277	0.0335693	-0.100708
-0.108643	0.0436401	-0.0650024
-0.0759888	0.0430298	-0.032959
-0.0415039	0.03479	-0.00671387
-0.010376	0.0216675	0.0112915
0.0140381	0.00671387	0.020752
0.0302124	-0.00762939	0.022583
0.0378418	-0.0195313	0.0183105
0.0387573	-0.027771	0.0109863
0.0344849	-0.0320435	0.00244141
0.0274658	-0.0323486	-0.00488281
0.0198364	-0.0302124	-0.010376
0.0131226	-0.0268555	-0.0137329
0.00823975	-0.0228882	-0.0146484
0.00549316	-0.0195313	-0.0140381
0.00396729	-0.0167847	-0.0128174
0.00457764	-0.0146484	-0.0100708
0.00640869	-0.0140381	-0.00762939
0.00854492	-0.0140381	-0.00549316
0.0106812	-0.0146484	-0.00396729
0.012207	-0.0152588	-0.00305176
0.0131226	-0.0158691	-0.00274658
0.0137329	-0.0167847	-0.00305176
0.0146484	-0.0177002	-0.00305176
0.015564	-0.0189209	-0.00335693
0.0164795	-0.0195313	-0.00305176
0.0170898	-0.0204468	-0.00335693
0.0180054	-0.020752	-0.00274658
0.0195313	-0.0213623	-0.00183105
0.0210571	-0.0216675	-0.000610352
0.022583	-0.0219727	0.000610352
0.0238037	-0.0228882	0.000915527
0.0247192	-0.0231934	0.00152588
0.0256348	-0.0234985	0.00213623
0.0262451	-0.0234985	0.00274658
0.0271606	-0.0231934	0.00396729
0.027771	-0.0228882	0.00488281
0.027771	-0.022583	0.00518799
0.027771	-0.022583	0.00518799
0.0283813	-0.0222778	0.00610352
0.0292969	-0.0222778	0.00701904
0.0308228	-0.0222778	0.00854492
0.0323486	-0.0219727	0.010376
0.0338745	-0.0222778	0.0115967
0.0357056	-0.0228882	0.0128174
0.0375366	-0.0231934	0.0143433
0.0390625	-0.0234985	0.015564
0.0405884	-0.0231934	0.017395
0.0418091	-0.0228882	0.0189209
0.0427246	-0.0222778	0.0204468
0.0436401	-0.0216675	0.0219727
0.0448608	-0.0213623	0.0234985
0.0460815	-0.0216675	0.0244141
0.0473022	-0.0222778	0.0250244
0.0482178	-0.022583	0.0256348
0.0494385	-0.0228882	0.0265503
0.0506592	-0.0234985	0.0271606
0.0518799	-0.0244141	0.0274658
0.0534058	-0.0253296	0.0280762
0.0552368	-0.0265503	0.0286865
0.0570679	-0.0274658	0.0296021
0.0592041	-0.0283813	0.0308228
0.0604248	-0.0286865	0.0317383
0.0619507	-0.0286865	0.0332642
0.0640869	-0.0289917	0.0350952
0.0668335	-0.0296021	0.0372314
0.0698853	-0.0302124	0.0396729
0.072937	-0.0305176	0.0424194
0.0753784	-0.0314331	0.0439453
0.078125	-0.0323486	0.0457764
0.0805664	-0.0332642	0.0473022
0.0830078	-0.0341797	0.0488281
0.0854492	-0.03479	0.0506592
0.0881958	-0.0354004	0.0527954
0.0900269	-0.0354004	0.0546265
0.0918579	-0.0357056	0.0561523
0.093689	-0.0357056	0.0579834
0.0952148	-0.0357056	0.0595093
0.0970459	-0.0350952	0.0619507
0.0991821	-0.03479	0.0643921
0.101929	-0.0350952	0.0668335
0.10498	-0.0354004	0.0695801
0.108337	-0.0363159	0.0720215
0.112305	-0.0375366	0.0747681
0.115967	-0.0390625	0.0769043
0.119934	-0.0411987	0.0787354
0.123901	-0.043335	0.0805664
0.127869	-0.0457764	0.0820923
0.132141	-0.0485229	0.0836182
0.136108	-0.0509644	0.085144
0.139771	-0.0527954	0.0869751
0.143433	-0.0540161	0.0894165
0.14679	-0.0552368	0.0915527
0.150146	-0.0564575	0.093689
0.154114	-0.0579834	0.0961304
0.158386	-0.0592041	0.0991821
0.162964	-0.0604248	0.102539
0.167542	-0.0610352	0.106506
0.172424	-0.0619507	0.110474
0.177612	-0.0628662	0.114746
0.183411	-0.0640869	0.119324
0.189514	-0.0656128	0.123901
0.196533	-0.0671387	0.129395
0.203857	-0.0686646	0.135193
0.211182	-0.0698853	0.141296
0.217896	-0.071106	0.14679
0.224304	-0.0723267	0.151978
0.230713	-0.0738525	0.15686
0.237427	-0.0753784	0.162048
0.24353	-0.0765991	0.166931
0.249023	-0.0775146	0.171509
0.254211	-0.078125	0.176086
0.258484	-0.0784302	0.180054
0.262451	-0.0784302	0.184021
0.266418	-0.0787354	0.187683
0.270386	-0.0787354	0.19165
0.274658	-0.0790405	0.195618
0.278931	-0.0793457	0.199585
0.282898	-0.0793457	0.203552
0.28717	-0.0793457	0.207825
0.291443	-0.0796509	0.211792
0.29541	-0.0799561	0.215454
0.298767	-0.0802612	0.218506
0.301514	-0.0802612	0.221252
0.303955	-0.0790405	0.224915
0.305481	-0.0775146	0.227966
0.305481	-0.0750732	0.230408
0.30426	-0.0723267	0.231934
0.301514	-0.0689697	0.232544
0.297241	-0.0643921	0.232849
0.291748	-0.0592041	0.232544
0.285034	-0.0534058	0.231628
0.276489	-0.0473022	0.229187
0.266418	-0.0411987	0.22522
0.254211	-0.0344849	0.219727
0.240784	-0.027771	0.213013
0.226135	-0.0213623	0.204773
0.210571	-0.0152588	0.195313
0.194702	-0.0100708	0.184631
0.178528	-0.00518799	0.17334
0.162048	-0.000610352	0.161438
0.145569	0.00366211	0.149231
0.1297	0.00701904	0.136719
0.114441	0.0100708	0.124512
0.0994873	0.0125122	0.112
0.0857544	0.0149536	0.100708
0.0723267	0.0167847	0.0891113
0.0598145	0.0180054	0.0778198
0.0479126	0.0186157	0.0665283
0.0366211	0.0189209	0.055542
0.0265503	0.0192261	0.0457764
0.0170898	0.0195313	0.0366211
0.00854492	0.0189209	0.0274658
0.000305176	0.0183105	0.0186157
-0.00732422	0.017395	0.0100708
-0.0134277	0.0164795	0.00305176
-0.0186157	0.015564	-0.00305176
-0.0231934	0.0143433	-0.0088501
-0.0271606	0.0134277	-0.0137329
-0.0308228	0.012207	-0.0186157
-0.0344849	0.010376	-0.0241089
-0.0378418	0.00823975	-0.0296021
-0.0405884	0.00640869	-0.0341797
-0.0427246	0.00396729	-0.0387573
-0.0445557	0.00152588	-0.0430298
-0.0460815	-0.000915527	-0.0469971
-0.0476074	-0.00274658	-0.050354
-0.0488281	-0.00427246	-0.0531006
-0.0500488	-0.00518799	-0.0552368
-0.0509644	-0.00579834	-0.0567627
-0.0512695	-0.00579834	-0.0570679
-0.0518799	-0.00549316	-0.057373
-0.0521851	-0.00579834	-0.0579834
-0.0518799	-0.00549316	-0.057373
-0.0515747	-0.00549316	-0.0570679
-0.0512695	-0.00549316	-0.0567627
-0.0509644	-0.00579834	-0.0567627
-0.050354	-0.00640869	-0.0567627
-0.0497437	-0.00701904	-0.0567627
-0.0494385	-0.00762939	-0.0570679
-0.0491333	-0.00793457	-0.0570679
-0.0485229	-0.00823975	-0.0567627
-0.0479126	-0.00793457	-0.0558472
-0.0473022	-0.00762939	-0.0549316
-0.0473022	-0.00701904	-0.0543213
-0.0469971	-0.00640869	-0.0534058
-0.0463867	-0.00610352	-0.0524902
-0.045166	-0.00610352	-0.0512695
-0.0442505	-0.00610352	-0.050354
-0.0430298	-0.00671387	-0.0497437
-0.0418091	-0.00732422	-0.0491333
-0.0402832	-0.00854492	-0.0488281
-0.0390625	-0.00946045	-0.0485229
-0.038147	-0.0100708	-0.0482178
-0.0375366	-0.010376	-0.0479126
-0.0369263	-0.0100708	-0.0469971
-0.0363159	-0.00976563	-0.0460815
-0.0360107	-0.00915527	-0.045166
-0.0357056	-0.00823975	-0.0439453
-0.0357056	-0.00671387	-0.0424194
-0.0354004	-0.00579834	-0.0411987
-0.03479	-0.00518799	-0.039978
-0.0344849	-0.00518799	-0.0396729
-0.0338745	-0.00549316	-0.0393677
-0.0326538	-0.00610352	-0.0387573
-0.0311279	-0.00701904	-0.038147
-0.0289917	-0.00793457	-0.0369263
-0.0271606	-0.00915527	-0.0363159
-0.0253296	-0.0100708	-0.0354004
-0.0238037	-0.0109863	-0.03479
-0.0222778	-0.0115967	-0.0338745
-0.0213623	-0.0115967	-0.032959
-0.0210571	-0.0112915	-0.0323486
-0.0213623	-0.0109863	-0.0323486
-0.0222778	-0.0106812	-0.032959
-0.0244141	-0.00976563	-0.0341797
-0.0268555	-0.00915527	-0.0360107
-0.0296021	-0.0088501	-0.0384521
-0.0311279	-0.0088501	-0.039978
-0.0323486	-0.0088501	-0.0411987
-0.032959	-0.00854492	-0.0415039
-0.0335693	-0.00854492	-0.0421143
-0.0338745	-0.00854492	-0.0424194
-0.0332642	-0.00854492	-0.0418091
-0.0320435	-0.00854492	-0.0405884
-0.0308228	-0.0088501	-0.0396729
-0.0296021	-0.00915527	-0.0387573
-0.0289917	-0.00976563	-0.0387573
-0.0283813	-0.010376	-0.0387573
-0.0280762	-0.010376	-0.0384521
-0.0280762	-0.010376	-0.0384521
-0.0280762	-0.0106812	-0.0387573
-0.0286865	-0.0112915	-0.039978
-0.0302124	-0.0119019	-0.0421143
-0.0317383	-0.0125122	-0.0442505
-0.0323486	-0.0137329	-0.0460815
-0.0323486	-0.0149536	-0.0473022
-0.0323486	-0.0158691	-0.0482178
-0.0323486	-0.0170898	-0.0494385
-0.0323486	-0.0186157	-0.0509644
-0.0326538	-0.0198364	-0.0524902
-0.0326538	-0.0210571	-0.0537109
-0.032959	-0.0219727	-0.0549316
-0.032959	-0.0228882	-0.0558472
-0.0335693	-0.0228882	-0.0564575
-0.03479	-0.022583	-0.057373
-0.0366211	-0.0216675	-0.0582886
-0.0384521	-0.0204468	-0.0588989
-0.0405884	-0.0198364	-0.0604248
-0.0421143	-0.0192261	-0.0613403
-0.043335	-0.0192261	-0.062561
-0.0442505	-0.0192261	-0.0634766
-0.0448608	-0.0192261	-0.0640869
-0.0445557	-0.0198364	-0.0643921
-0.0439453	-0.0201416	-0.0640869
-0.0430298	-0.0201416	-0.0631714
-0.0424194	-0.0201416	-0.062561
-0.0421143	-0.0198364	-0.0619507
-0.0418091	-0.0189209	-0.06073
-0.0418091	-0.0183105	-0.0601196
-0.0421143	-0.017395	-0.0595093
-0.0424194	-0.0164795	-0.0588989
-0.0430298	-0.0161743	-0.0592041
-0.0436401	-0.0164795	-0.0601196
-0.0442505	-0.0170898	-0.0613403
-0.0448608	-0.0177002	-0.062561
-0.045166	-0.0186157	-0.0637817
-0.0454712	-0.0195313	-0.0650024
-0.0448608	-0.0204468	-0.0653076
-0.0436401	-0.0213623	-0.0650024
-0.0424194	-0.0216675	-0.0640869
-0.0408936	-0.0213623	-0.0622559
-0.039978	-0.020752	-0.06073
-0.0390625	-0.0198364	-0.0588989
-0.0384521	-0.0186157	-0.0570679
-0.0378418	-0.0183105	-0.0561523
-0.0375366	-0.0180054	-0.055542
-0.0369263	-0.0186157	-0.055542
-0.0366211	-0.0192261	-0.0558472
-0.0375366	-0.0198364	-0.057373
-0.0384521	-0.0204468	-0.0588989
-0.0387573	-0.0210571	-0.0598145
-0.0384521	-0.0216675	-0.0601196
-0.038147	-0.0222778	-0.0604248
-0.038147	-0.022583	-0.06073
-0.0378418	-0.0222778	-0.0601196
-0.0375366	-0.0219727	-0.0595093
-0.0372314	-0.0210571	-0.0582886
-0.0369263	-0.0201416	-0.0570679
-0.0363159	-0.0189209	-0.0552368
-0.0360107	-0.0183105	-0.0543213
-0.0360107	-0.0180054	-0.0540161
-0.0363159	-0.017395	-0.0537109
-0.0363159	-0.017395	-0.0537109
-0.0363159	-0.0170898	-0.0534058
-0.0366211	-0.0167847	-0.0534058
-0.0360107	-0.0164795	-0.0524902
-0.03479	-0.0158691	-0.0506592
-0.0335693	-0.0152588	-0.0488281
-0.0320435	-0.0143433	-0.0463867
-0.0302124	-0.0134277	-0.0436401
-0.0280762	-0.012207	-0.0402832
-0.0247192	-0.0109863	-0.0357056
-0.0204468	-0.0100708	-0.0305176
-0.0152588	-0.00915527	-0.0244141
-0.0100708	-0.00823975	-0.0183105
-0.00488281	-0.00732422	-0.012207
0	-0.00579834	-0.00579834
0.00457764	-0.00457764	0
0.00946045	-0.00396729	0.00549316
0.0143433	-0.00396729	0.010376
0.0189209	-0.00457764	0.0143433
0.0238037	-0.00518799	0.0186157
0.0292969	-0.00610352	0.0231934
0.0360107	-0.00762939	0.0283813
0.0424194	-0.00946045	0.032959
0.0485229	-0.0106812	0.0378418
0.0537109	-0.0109863	0.0427246
0.0579834	-0.010376	0.0476074
0.0604248	-0.0088501	0.0515747
0.0610352	-0.00640869	0.0546265
0.0598145	-0.00396729	0.0558472
0.057373	-0.0012207	0.0561523
0.0534058	0.00152588	0.0549316
0.0491333	0.00366211	0.0527954
0.0448608	0.00427246	0.0491333
0.0415039	0.00274658	0.0442505
0.0390625	-0.0012207	0.0378418
0.038147	-0.00732422	0.0308228
0.0375366	-0.0146484	0.0228882
0.0369263	-0.0219727	0.0149536
0.0366211	-0.0283813	0.00823975
0.0357056	-0.0341797	0.00152588
0.0332642	-0.0384521	-0.00518799
0.0286865	-0.0415039	-0.0128174
0.022583	-0.0424194	-0.0198364
0.0158691	-0.0415039	-0.0256348
0.00762939	-0.0390625	-0.0314331
-0.0012207	-0.0357056	-0.0369263
-0.00946045	-0.0317383	-0.0411987
-0.0167847	-0.0280762	-0.0448608
-0.0228882	-0.0253296	-0.0482178
-0.027771	-0.0231934	-0.0509644
-0.0317383	-0.0213623	-0.0531006
-0.0344849	-0.0204468	-0.0549316
-0.0366211	-0.0195313	-0.0561523
-0.0378418	-0.0195313	-0.057373
-0.0384521	-0.0198364	-0.0582886
-0.0387573	-0.0204468	-0.0592041
-0.0393677	-0.0204468	-0.0598145
-0.0393677	-0.0204468	-0.0598145
-0.0390625	-0.0201416	-0.0592041
-0.0390625	-0.0201416	-0.0592041
-0.0390625	-0.0198364	-0.0588989
-0.0396729	-0.0195313	-0.0592041
-0.0405884	-0.0192261	-0.0598145
-0.0415039	-0.0189209	-0.0604248
-0.0421143	-0.0183105	-0.0604248
-0.0430298	-0.0177002	-0.06073
-0.0439453	-0.017395	-0.0613403
-0.045166	-0.017395	-0.062561
-0.0457764	-0.0170898	-0.0628662
-0.0454712	-0.017395	-0.0628662
-0.0448608	-0.0183105	-0.0631714
-0.0439453	-0.0189209	-0.0628662
-0.0430298	-0.0195313	-0.062561
-0.0418091	-0.0201416	-0.0619507
-0.0405884	-0.020752	-0.0613403
-0.0396729	-0.020752	-0.0604248
-0.0390625	-0.020752	-0.0598145
-0.0384521	-0.020752	-0.0592041
-0.038147	-0.0204468	-0.0585938
-0.0384521	-0.0204468	-0.0588989
-0.0390625	-0.0204468	-0.0595093
-0.039978	-0.0204468	-0.0604248
-0.0402832	-0.0204468	-0.06073
-0.0405884	-0.0204468	-0.0610352
-0.039978	-0.020752	-0.06073
-0.0387573	-0.0210571	-0.0598145
-0.0375366	-0.0216675	-0.0592041
-0.0366211	-0.0219727	-0.0585938
-0.0357056	-0.0222778	-0.0579834
-0.0350952	-0.0219727	-0.0570679
-0.0344849	-0.0213623	-0.0558472
-0.0332642	-0.0204468	-0.0537109
-0.0320435	-0.0192261	-0.0512695
-0.0311279	-0.0177002	-0.0488281
-0.0308228	-0.0164795	-0.0473022
-0.0305176	-0.0152588	-0.0457764
-0.0302124	-0.0143433	-0.0445557
-0.0302124	-0.0137329	-0.0439453
-0.0308228	-0.0134277	-0.0442505
-0.0317383	-0.0134277	-0.045166
-0.0323486	-0.0131226	-0.0454712
-0.0326538	-0.0115967	-0.0442505
-0.0317383	-0.00732422	-0.0390625
-0.0299072	-0.00152588	-0.0314331
-0.0265503	0.00579834	-0.020752
-0.0204468	0.0143433	-0.00610352
-0.0106812	0.0228882	0.012207
0.00366211	0.0305176	0.0341797
0.0231934	0.0366211	0.0598145
0.0482178	0.0402832	0.088501
0.078125	0.0421143	0.120239
0.112305	0.0436401	0.155945
0.150452	0.0457764	0.196228
0.190735	0.0469971	0.237732
0.230713	0.0418091	0.272522
0.267334	0.027771	0.295105
0.297852	0.00640869	0.30426
0.318604	-0.0180054	0.300598
0.326233	-0.0411987	0.285034
0.317078	-0.062561	0.254517
0.290222	-0.0820923	0.20813
0.245361	-0.0985718	0.14679
0.185547	-0.109863	0.0756836
0.116882	-0.114746	0.00213623
0.0448608	-0.111389	-0.0665283
-0.0247192	-0.098877	-0.123596
-0.0860596	-0.078125	-0.164185
-0.134888	-0.0515747	-0.186462
-0.167542	-0.0234985	-0.19104
-0.18219	0.0012207	-0.180969
-0.178833	0.0198364	-0.158997
-0.159607	0.0305176	-0.129089
-0.130005	0.0338745	-0.0961304
-0.0949097	0.0305176	-0.0643921
-0.0595093	0.0222778	-0.0372314
-0.0274658	0.0112915	-0.0161743
-0.00152588	-0.000915527	-0.00244141
0.0164795	-0.0119019	0.00457764
0.0265503	-0.020752	0.00579834
0.0289917	-0.0265503	0.00244141
0.0262451	-0.0292969	-0.00305176
0.0210571	-0.0299072	-0.0088501
0.0149536	-0.0286865	-0.0137329
0.0100708	-0.0265503	-0.0164795
0.00640869	-0.0244141	-0.0180054
0.00457764	-0.0228882	-0.0183105
0.00427246	-0.022583	-0.0183105
0.00488281	-0.0228882	-0.0180054
0.00610352	-0.0238037	-0.0177002
0.00732422	-0.0247192	-0.017395
0.00854492	-0.0259399	-0.017395
0.00976563	-0.0271606	-0.017395
0.0109863	-0.0283813	-0.017395
0.0112915	-0.0289917	-0.0177002
0.0109863	-0.0292969	-0.0183105
0.0109863	-0.0296021	-0.0186157
0.0109863	-0.0289917	-0.0180054
0.0109863	-0.0283813	-0.017395
0.0109863	-0.0271606	-0.0161743
0.0112915	-0.0259399	-0.0146484
0.012207	-0.0256348	-0.0134277
0.0134277	-0.0259399	-0.0125122
0.0152588	-0.0262451	-0.0109863
0.0170898	-0.0268555	-0.00976563
0.0189209	-0.0271606	-0.00823975
0.0210571	-0.0280762	-0.00701904
0.0228882	-0.0292969	-0.00640869
0.0244141	-0.0305176	-0.00610352
0.0256348	-0.0317383	-0.00610352
0.0265503	-0.0326538	-0.00610352
0.027771	-0.0326538	-0.00488281
0.0286865	-0.0320435	-0.00335693
0.0292969	-0.0311279	-0.00183105
0.0296021	-0.0305176	-0.000915527
0.0299072	-0.0302124	-0.000305176
0.0299072	-0.0299072	0
0.0305176	-0.0299072	0.000610352
0.0311279	-0.0299072	0.0012207
0.0320435	-0.0305176	0.00152588
0.032959	-0.0311279	0.00183105
0.0344849	-0.0317383	0.00274658
0.0366211	-0.0320435	0.00457764
0.0387573	-0.0323486	0.00640869
0.0411987	-0.032959	0.00823975
0.043335	-0.032959	0.010376
0.0454712	-0.032959	0.0125122
0.0473022	-0.0326538	0.0146484
0.0494385	-0.0326538	0.0167847
0.050354	-0.0326538	0.0177002
0.0509644	-0.032959	0.0180054
0.0512695	-0.0335693	0.0177002
0.0515747	-0.0341797	0.017395
0.0518799	-0.03479	0.0170898
0.0524902	-0.0350952	0.017395
0.0540161	-0.0354004	0.0186157
0.0561523	-0.0357056	0.0204468
0.0588989	-0.0357056	0.0231934
0.0619507	-0.0357056	0.0262451
0.0653076	-0.0354004	0.0299072
0.0683594	-0.0350952	0.0332642
0.0717163	-0.0354004	0.0363159
0.0750732	-0.0357056	0.0393677
0.078125	-0.0363159	0.0418091
0.0805664	-0.0369263	0.0436401
0.0823975	-0.0375366	0.0448608
0.083313	-0.038147	0.045166
0.0839233	-0.0387573	0.045166
0.085144	-0.0396729	0.0454712
0.0869751	-0.039978	0.0469971
0.0891113	-0.039978	0.0491333
0.0912476	-0.0393677	0.0518799
0.0939941	-0.038147	0.0558472
0.0970459	-0.0372314	0.0598145
0.101013	-0.0369263	0.0640869
0.104675	-0.0369263	0.067749
0.108948	-0.0378418	0.071106
0.112915	-0.0387573	0.0741577
0.116882	-0.0402832	0.0765991
0.120544	-0.0424194	0.078125
0.124207	-0.0448608	0.0793457
0.128174	-0.0473022	0.0808716
0.132141	-0.0500488	0.0820923
0.135803	-0.0524902	0.083313
0.139771	-0.0543213	0.0854492
0.144043	-0.055542	0.088501
0.148926	-0.0567627	0.0921631
0.153809	-0.057373	0.0964355
0.158997	-0.0576782	0.101318
0.163879	-0.0579834	0.105896
0.169373	-0.0585938	0.110779
0.174866	-0.0588989	0.115967
0.180664	-0.0592041	0.12146
0.186157	-0.0598145	0.126343
0.191956	-0.0610352	0.13092
0.197754	-0.062561	0.135193
0.203857	-0.0637817	0.140076
0.209961	-0.0653076	0.144653
0.215759	-0.0668335	0.148926
0.221558	-0.0686646	0.152893
0.227051	-0.0704956	0.156555
0.231934	-0.0720215	0.159912
0.236511	-0.0732422	0.163269
0.241089	-0.0741577	0.166931
0.245972	-0.0747681	0.171204
0.25116	-0.0753784	0.175781
0.255737	-0.0753784	0.180359
0.26062	-0.0756836	0.184937
0.265503	-0.0759888	0.189514
0.270691	-0.0765991	0.194092
0.276184	-0.0775146	0.198669
0.281677	-0.0784302	0.203247
0.286255	-0.0790405	0.207214
0.290222	-0.0796509	0.210571
0.293579	-0.0802612	0.213318
0.29541	-0.0805664	0.214844
0.296326	-0.0799561	0.21637
0.296326	-0.0784302	0.217896
0.295105	-0.0756836	0.219421
0.292358	-0.0717163	0.220642
0.289001	-0.0668335	0.222168
0.283508	-0.0610352	0.222473
0.276489	-0.0549316	0.221558
0.267639	-0.0479126	0.219727
0.257568	-0.0405884	0.21698
0.245972	-0.032959	0.213013
0.233154	-0.0256348	0.20752
0.218811	-0.0189209	0.19989
0.203552	-0.0131226	0.19043
0.187683	-0.00762939	0.180054
0.171204	-0.00244141	0.168762
0.154419	0.00274658	0.157166
0.137634	0.00732422	0.144958
0.120544	0.0112915	0.131836
0.103455	0.0149536	0.118408
0.0872803	0.0180054	0.105286
0.0726318	0.0204468	0.0930786
0.0588989	0.0231934	0.0820923
0.0463867	0.0250244	0.0714111
0.0344849	0.0265503	0.0610352
0.0241089	0.0271606	0.0512695
0.0143433	0.0268555	0.0411987
0.00610352	0.0259399	0.0320435
-0.0012207	0.0247192	0.0234985
-0.00793457	0.0234985	0.015564
-0.0143433	0.0222778	0.00793457
-0.0204468	0.020752	0.000305176
-0.0262451	0.0189209	-0.00732422
-0.0317383	0.0170898	-0.0146484
-0.0369263	0.015564	-0.0213623
-0.0418091	0.0143433	-0.0274658
-0.0460815	0.0131226	-0.032959
-0.0497437	0.0119019	-0.0378418
-0.0524902	0.0106812	-0.0418091
-0.0543213	0.00976563	-0.0445557
-0.055542	0.0088501	-0.0466919
-0.0567627	0.00823975	-0.0485229
-0.0576782	0.00732422	-0.050354
-0.0585938	0.00671387	-0.0518799
-0.0598145	0.00579834	-0.0540161
-0.06073	0.00579834	-0.0549316
-0.0616455	0.00579834	-0.0558472
-0.0631714	0.00610352	-0.0570679
-0.0643921	0.00640869	-0.0579834
-0.0656128	0.00671387	-0.0588989
-0.0662231	0.00701904	-0.0592041
-0.0656128	0.00732422	-0.0582886
-0.0643921	0.00793457	-0.0564575
-0.0631714	0.00823975	-0.0549316
-0.0619507	0.00854492	-0.0534058
-0.0598145	0.0088501	-0.0509644
-0.0576782	0.0088501	-0.0488281
-0.0561523	0.00915527	-0.0469971
-0.0549316	0.00915527	-0.0457764
-0.0537109	0.0088501	-0.0448608
-0.0527954	0.00854492	-0.0442505
-0.0521851	0.00854492	-0.0436401
-0.0515747	0.0088501	-0.0427246
-0.0515747	0.00915527	-0.0424194
-0.0515747	0.00946045	-0.0421143
-0.050354	0.00976563	-0.0405884
-0.0482178	0.00976563	-0.0384521
-0.0460815	0.0100708	-0.0360107
-0.0442505	0.010376	-0.0338745
-0.0427246	0.010376	-0.0323486
-0.0418091	0.0100708	-0.0317383
-0.0405884	0.010376	-0.0302124
-0.0396729	0.0106812	-0.0289917
-0.0393677	0.0106812	-0.0286865
-0.0390625	0.0100708	-0.0289917
-0.0390625	0.00915527	-0.0299072
-0.038147	0.00793457	-0.0302124
-0.0372314	0.00640869	-0.0308228
-0.0360107	0.00488281	-0.0311279
-0.0344849	0.00366211	-0.0308228
-0.032959	0.00244141	-0.0305176
-0.0311279	0.00152588	-0.0296021
-0.0292969	0.000915527	-0.0283813
-0.027771	0.000915527	-0.0268555
-0.0268555	0.0012207	-0.0256348
-0.0265503	0.00183105	-0.0247192
-0.0268555	0.00305176	-0.0238037
-0.0271606	0.00427246	-0.0228882
-0.027771	0.00579834	-0.0219727
-0.0283813	0.00671387	-0.0216675
-0.0286865	0.00732422	-0.0213623
-0.0289917	0.00701904	-0.0219727
-0.0289917	0.00640869	-0.022583
-0.0289917	0.00518799	-0.0238037
-0.0296021	0.00427246	-0.0253296
-0.0308228	0.00305176	-0.027771
-0.0320435	0.00152588	-0.0305176
-0.0332642	0.000610352	-0.0326538
-0.0338745	-0.000610352	-0.0344849
-0.0341797	-0.00183105	-0.0360107
-0.0344849	-0.00274658	-0.0372314
-0.03479	-0.00305176	-0.0378418
-0.03479	-0.00305176	-0.0378418
-0.0341797	-0.00274658	-0.0369263
-0.032959	-0.00244141	-0.0354004
-0.0314331	-0.00213623	-0.0335693
-0.0299072	-0.00213623	-0.0320435
-0.0289917	-0.00213623	-0.0311279
-0.0286865	-0.00213623	-0.0308228
-0.0286865	-0.00244141	-0.0311279
-0.0289917	-0.00305176	-0.0320435
-0.0302124	-0.00366211	-0.0338745
-0.0323486	-0.00457764	-0.0369263
-0.0344849	-0.00549316	-0.039978
-0.0366211	-0.00640869	-0.0430298
-0.038147	-0.00732422	-0.0454712
-0.0393677	-0.00823975	-0.0476074
-0.0402832	-0.00915527	-0.0494385
-0.0405884	-0.010376	-0.0509644
-0.0405884	-0.0112915	-0.0518799
-0.0402832	-0.0125122	-0.0527954
-0.0396729	-0.0131226	-0.0527954
-0.0390625	-0.0137329	-0.0527954
-0.038147	-0.0140381	-0.0521851
-0.0366211	-0.0140381	-0.0506592
-0.0354004	-0.0143433	-0.0497437
-0.0344849	-0.0146484	-0.0491333
-0.0341797	-0.0149536	-0.0491333
-0.0341797	-0.0152588	-0.0494385
-0.0344849	-0.015564	-0.0500488
-0.03479	-0.0161743	-0.0509644
-0.0350952	-0.0170898	-0.0521851
-0.0354004	-0.017395	-0.0527954
-0.0357056	-0.0180054	-0.0537109
-0.0366211	-0.0180054	-0.0546265
-0.0375366	-0.0180054	-0.055542
-0.0384521	-0.0177002	-0.0561523
-0.0387573	-0.0167847	-0.055542
-0.0393677	-0.0152588	-0.0546265
-0.0393677	-0.0140381	-0.0534058
-0.0393677	-0.0131226	-0.0524902
-0.0396729	-0.0125122	-0.0521851
-0.0393677	-0.0119019	-0.0512695
-0.0393677	-0.012207	-0.0515747
-0.0393677	-0.0134277	-0.0527954
-0.0390625	-0.0146484	-0.0537109
-0.0393677	-0.0161743	-0.055542
-0.0396729	-0.0177002	-0.057373
-0.039978	-0.0195313	-0.0595093
-0.0402832	-0.0210571	-0.0613403
-0.0411987	-0.0219727	-0.0631714
-0.0418091	-0.022583	-0.0643921
-0.0421143	-0.022583	-0.0646973
-0.0421143	-0.0222778	-0.0643921
-0.0421143	-0.0216675	-0.0637817
-0.0415039	-0.0210571	-0.062561
-0.0405884	-0.0201416	-0.06073
-0.0393677	-0.0195313	-0.0588989
-0.0384521	-0.0189209	-0.057373
-0.0375366	-0.0186157	-0.0561523
-0.0369263	-0.0192261	-0.0561523
-0.0366211	-0.0201416	-0.0567627
-0.0369263	-0.0210571	-0.0579834
-0.0375366	-0.022583	-0.0601196
-0.038147	-0.0241089	-0.0622559
-0.0384521	-0.0259399	-0.0643921
-0.0384521	-0.027771	-0.0662231
-0.0384521	-0.0289917	-0.0674438
-0.038147	-0.0302124	-0.0683594
-0.0378418	-0.0305176	-0.0683594
-0.0378418	-0.0299072	-0.067749
-0.038147	-0.0286865	-0.0668335
-0.038147	-0.027771	-0.065918
-0.0378418	-0.0271606	-0.0650024
-0.0375366	-0.0265503	-0.0640869
-0.0372314	-0.0256348	-0.0628662
-0.0360107	-0.0244141	-0.0604248
-0.03479	-0.0234985	-0.0582886
-0.0326538	-0.0228882	-0.055542
-0.0299072	-0.022583	-0.0524902
-0.0262451	-0.022583	-0.0488281
-0.0213623	-0.022583	-0.0439453
-0.015564	-0.0219727	-0.0375366
-0.00915527	-0.0210571	-0.0302124
-0.00366211	-0.0195313	-0.0231934
0.000915527	-0.017395	-0.0164795
0.00457764	-0.0152588	-0.0106812
0.00762939	-0.0137329	-0.00610352
0.0109863	-0.0128174	-0.00183105
0.0143433	-0.012207	0.00213623
0.0186157	-0.0119019	0.00671387
0.0241089	-0.0119019	0.012207
0.0299072	-0.0125122	0.017395
0.0357056	-0.0137329	0.0219727
0.0405884	-0.0152588	0.0253296
0.0448608	-0.0167847	0.0280762
0.0488281	-0.0180054	0.0308228
0.0509644	-0.0183105	0.0326538
0.0518799	-0.0183105	0.0335693
0.0509644	-0.017395	0.0335693
0.0482178	-0.0161743	0.0320435
0.0439453	-0.0149536	0.0289917
0.0387573	-0.0146484	0.0241089
0.0341797	-0.0158691	0.0183105
0.0302124	-0.0186157	0.0115967
0.027771	-0.0231934	0.00457764
0.0262451	-0.0292969	-0.00305176
0.0259399	-0.0357056	-0.00976563
0.0256348	-0.0427246	-0.0170898
0.0253296	-0.0491333	-0.0238037
0.0241089	-0.0546265	-0.0305176
0.0222778	-0.0592041	-0.0369263
0.0192261	-0.0622559	-0.0430298
0.0152588	-0.0637817	-0.0485229
0.0100708	-0.0631714	-0.0531006
0.00335693	-0.06073	-0.057373
-0.00457764	-0.0570679	-0.0616455
-0.0128174	-0.0534058	-0.0662231
-0.020752	-0.0497437	-0.0704956
-0.0271606	-0.0469971	-0.0741577
-0.032959	-0.045166	-0.078125
-0.0378418	-0.043335	-0.0811768
-0.0421143	-0.0421143	-0.0842285
-0.0448608	-0.0415039	-0.0863647
-0.0466919	-0.0408936	-0.0875854
-0.0473022	-0.0408936	-0.0881958
-0.0479126	-0.0408936	-0.0888062
-0.0482178	-0.0411987	-0.0894165
-0.0479126	-0.0411987	-0.0891113
-0.0473022	-0.0415039	-0.0888062
-0.0463867	-0.0418091	-0.0881958
-0.0457764	-0.0421143	-0.0878906
-0.0448608	-0.0424194	-0.0872803
-0.0445557	-0.0427246	-0.0872803
-0.0442505	-0.0430298	-0.0872803
-0.0442505	-0.0430298	-0.0872803
-0.0442505	-0.0430298	-0.0872803
-0.0442505	-0.0427246	-0.0869751
-0.0445557	-0.0427246	-0.0872803
-0.0448608	-0.0424194	-0.0872803
-0.0448608	-0.0421143	-0.0869751
-0.045166	-0.0415039	-0.0866699
-0.0457764	-0.0408936	-0.0866699
-0.0466919	-0.0405884	-0.0872803
-0.0476074	-0.0408936	-0.088501
-0.0476074	-0.0411987	-0.0888062
-0.0469971	-0.0415039	-0.088501
-0.0460815	-0.0421143	-0.0881958
-0.045166	-0.0424194	-0.0875854
-0.0445557	-0.0427246	-0.0872803
-0.0448608	-0.0427246	-0.0875854
-0.045166	-0.0424194	-0.0875854
-0.045166	-0.0424194	-0.0875854
-0.0448608	-0.0421143	-0.0869751
-0.0448608	-0.0415039	-0.0863647
-0.0448608	-0.0405884	-0.0854492
-0.0448608	-0.0396729	-0.0845337
-0.0445557	-0.0387573	-0.083313
-0.0442505	-0.038147	-0.0823975
-0.043335	-0.0378418	-0.0811768
-0.0421143	-0.0378418	-0.0799561
-0.0408936	-0.038147	-0.0790405
-0.0393677	-0.038147	-0.0775146
-0.0378418	-0.0384521	-0.0762939
-0.0369263	-0.0390625	-0.0759888
-0.0366211	-0.0396729	-0.0762939
-0.0363159	-0.0405884	-0.0769043
-0.0369263	-0.0411987	-0.078125
-0.038147	-0.0411987	-0.0793457
-0.0402832	-0.039978	-0.0802612
-0.0421143	-0.0369263	-0.0790405
-0.043335	-0.0311279	-0.0744629
-0.0427246	-0.0228882	-0.0656128
-0.0393677	-0.0119019	-0.0512695
-0.0335693	0.0012207	-0.0323486
-0.0262451	0.0164795	-0.00976563
-0.0149536	0.0326538	0.0177002
0.0012207	0.0473022	0.0485229
0.0238037	0.0592041	0.0830078
0.0521851	0.0671387	0.119324
0.0866699	0.0704956	0.157166
0.126648	0.0692749	0.195923
0.170898	0.0643921	0.235291
0.216675	0.0549316	0.271606
0.262756	0.0350952	0.297852
0.307617	0.00213623	0.309753
0.348206	-0.0415039	0.306702
0.379639	-0.0891113	0.290527
0.396423	-0.136719	0.259705
0.395813	-0.182495	0.213318
0.375671	-0.224915	0.150757
0.336609	-0.26001	0.0765991
0.281372	-0.284729	-0.00335693
0.213318	-0.2948	-0.0814819
0.137939	-0.288086	-0.150146
0.0613403	-0.265503	-0.204163
-0.010376	-0.229492	-0.239868
-0.0714111	-0.184326	-0.255737
-0.117188	-0.135803	-0.252991
-0.144348	-0.0891113	-0.233459
-0.153503	-0.0482178	-0.201721
-0.147095	-0.0164795	-0.163574
-0.127869	0.00427246	-0.123596
-0.100708	0.0137329	-0.0869751
-0.0695801	0.0131226	-0.0564575
-0.0396729	0.00518799	-0.0344849
-0.0146484	-0.00671387	-0.0213623
0.00335693	-0.0198364	-0.0164795
0.0131226	-0.0314331	-0.0183105
0.0161743	-0.0393677	-0.0231934
0.0134277	-0.0436401	-0.0302124
0.00762939	-0.0445557	-0.0369263
0.000305176	-0.0430298	-0.0427246
-0.00640869	-0.0402832	-0.0466919
-0.0119019	-0.0369263	-0.0488281
-0.0152588	-0.0338745	-0.0491333
-0.0170898	-0.0314331	-0.0485229
-0.0177002	-0.0302124	-0.0479126
-0.0170898	-0.0296021	-0.0466919
-0.015564	-0.0299072	-0.0454712
-0.0134277	-0.0305176	-0.0439453
-0.0115967	-0.0314331	-0.0430298
-0.0100708	-0.0326538	-0.0427246
-0.00823975	-0.0335693	-0.0418091
-0.00640869	-0.0338745	-0.0402832
-0.00518799	-0.0338745	-0.0390625
-0.00427246	-0.0335693	-0.0378418
-0.00335693	-0.0335693	-0.0369263
-0.00274658	-0.0332642	-0.0360107
-0.00183105	-0.0332642	-0.0350952
-0.0012207	-0.0332642	-0.0344849
-0.000610352	-0.0332642	-0.0338745
0	-0.0335693	-0.0335693
0.000610352	-0.0335693	-0.032959
0.000610352	-0.0332642	-0.0326538
0.0012207	-0.0326538	-0.0314331
0.00213623	-0.0326538	-0.0305176
0.00305176	-0.0326538	-0.0296021
0.00366211	-0.0326538	-0.0289917
0.00488281	-0.0326538	-0.027771
0.00640869	-0.0326538	-0.0262451
0.00854492	-0.0326538	-0.0241089
0.010376	-0.0326538	-0.0222778
0.0115967	-0.0326538	-0.0210571
0.0128174	-0.0326538	-0.0198364
0.0146484	-0.0323486	-0.0177002
0.0167847	-0.0320435	-0.0152588
0.0186157	-0.0314331	-0.0128174
0.0204468	-0.0305176	-0.0100708
0.0219727	-0.0299072	-0.00793457
0.0231934	-0.0292969	-0.00610352
0.0244141	-0.0292969	-0.00488281
0.0256348	-0.0296021	-0.00396729
0.0268555	-0.0305176	-0.00366211
0.0280762	-0.0317383	-0.00366211
0.0292969	-0.032959	-0.00366211
0.0305176	-0.0341797	-0.00366211
0.0314331	-0.0350952	-0.00366211
0.0323486	-0.0360107	-0.00366211
0.0332642	-0.0363159	-0.00305176
0.0338745	-0.0366211	-0.00274658
0.03479	-0.0363159	-0.00152588
0.0366211	-0.0357056	0.000915527
0.0378418	-0.0350952	0.00274658
0.0390625	-0.0344849	0.00457764
0.0402832	-0.0341797	0.00610352
0.0415039	-0.0341797	0.00732422
0.043335	-0.0344849	0.0088501
0.0457764	-0.03479	0.0109863
0.0485229	-0.0354004	0.0131226
0.0509644	-0.0357056	0.0152588
0.0534058	-0.0357056	0.0177002
0.0558472	-0.0360107	0.0198364
0.0585938	-0.0363159	0.0222778
0.0616455	-0.0369263	0.0247192
0.0646973	-0.0369263	0.027771
0.0671387	-0.0372314	0.0299072
0.0698853	-0.0375366	0.0323486
0.0726318	-0.038147	0.0344849
0.0756836	-0.0390625	0.0366211
0.0787354	-0.039978	0.0387573
0.0820923	-0.0408936	0.0411987
0.0854492	-0.0415039	0.0439453
0.0888062	-0.0421143	0.0466919
0.0921631	-0.0430298	0.0491333
0.09552	-0.043335	0.0521851
0.0991821	-0.0439453	0.0552368
0.102844	-0.0442505	0.0585938
0.106812	-0.0442505	0.062561
0.110474	-0.0442505	0.0662231
0.114441	-0.0445557	0.0698853
0.117798	-0.0448608	0.072937
0.121765	-0.045166	0.0765991
0.126038	-0.0457764	0.0802612
0.13031	-0.0466919	0.0836182
0.134583	-0.0482178	0.0863647
0.138855	-0.0497437	0.0891113
0.143433	-0.0512695	0.0921631
0.148315	-0.0531006	0.0952148
0.153503	-0.0549316	0.0985718
0.158691	-0.0567627	0.101929
0.163574	-0.0585938	0.10498
0.169067	-0.0601196	0.108948
0.174255	-0.0616455	0.11261
0.179749	-0.062561	0.117188
0.185547	-0.062561	0.122986
0.19165	-0.062561	0.129089
0.197754	-0.062561	0.135193
0.203552	-0.0622559	0.141296
0.209656	-0.0622559	0.1474
0.216064	-0.0622559	0.153809
0.222778	-0.0622559	0.160522
0.229492	-0.062561	0.166931
0.235291	-0.0628662	0.172424
0.241089	-0.0634766	0.177612
0.246887	-0.0637817	0.183105
0.252686	-0.0643921	0.188293
0.258179	-0.0650024	0.193176
0.263672	-0.0656128	0.198059
0.26886	-0.065918	0.202942
0.273743	-0.065918	0.207825
0.27832	-0.065918	0.212402
0.281982	-0.0656128	0.21637
0.285339	-0.0656128	0.219727
0.287781	-0.0650024	0.222778
0.289917	-0.0637817	0.226135
0.290833	-0.0622559	0.228577
0.290222	-0.0598145	0.230408
0.288086	-0.0567627	0.231323
0.284119	-0.0534058	0.230713
0.278625	-0.0491333	0.229492
0.271606	-0.0442505	0.227356
0.262756	-0.0387573	0.223999
0.25238	-0.0326538	0.219727
0.240479	-0.0268555	0.213623
0.227356	-0.0213623	0.205994
0.213013	-0.0161743	0.196838
0.197754	-0.0106812	0.187073
0.18158	-0.00549316	0.176086
0.164795	-0.000610352	0.164185
0.14801	0.00335693	0.151367
0.131836	0.00671387	0.13855
0.115662	0.0100708	0.125732
0.0997925	0.0131226	0.112915
0.0845337	0.0158691	0.100403
0.0698853	0.0183105	0.0881958
0.055542	0.0201416	0.0756836
0.0427246	0.0216675	0.0643921
0.0308228	0.022583	0.0534058
0.0198364	0.0231934	0.0430298
0.0100708	0.0241089	0.0341797
0.000915527	0.0244141	0.0253296
-0.00701904	0.0247192	0.0177002
-0.0140381	0.0241089	0.0100708
-0.0198364	0.022583	0.00274658
-0.0244141	0.0210571	-0.00335693
-0.0283813	0.0192261	-0.00915527
-0.0320435	0.017395	-0.0146484
-0.0350952	0.0149536	-0.0201416
-0.038147	0.0125122	-0.0256348
-0.0405884	0.0100708	-0.0305176
-0.0430298	0.00793457	-0.0350952
-0.0454712	0.00671387	-0.0387573
-0.0479126	0.00579834	-0.0421143
-0.0500488	0.00518799	-0.0448608
-0.0518799	0.00457764	-0.0473022
-0.0537109	0.00427246	-0.0494385
-0.055542	0.00427246	-0.0512695
-0.057373	0.00488281	-0.0524902
-0.0588989	0.00518799	-0.0537109
-0.06073	0.00518799	-0.055542
-0.0619507	0.00518799	-0.0567627
-0.0631714	0.00488281	-0.0582886
-0.0640869	0.00488281	-0.0592041
-0.0646973	0.00457764	-0.0601196
-0.0653076	0.00427246	-0.0610352
-0.0650024	0.00396729	-0.0610352
-0.0650024	0.00366211	-0.0613403
-0.0646973	0.00335693	-0.0613403
-0.0640869	0.00305176	-0.0610352
-0.0634766	0.00244141	-0.0610352
-0.0628662	0.00213623	-0.06073
-0.062561	0.00152588	-0.0610352
-0.0619507	0.000915527	-0.0610352
-0.0613403	0.000305176	-0.0610352
-0.06073	0	-0.06073
-0.0604248	0	-0.0604248
-0.0595093	0.000305176	-0.0592041
-0.0592041	0.000610352	-0.0585938
-0.0582886	0.000915527	-0.057373
-0.057373	0.000915527	-0.0564575
-0.0558472	0.000915527	-0.0549316
-0.0543213	0.000610352	-0.0537109
-0.0521851	0.000305176	-0.0518799
-0.050354	-0.000305176	-0.0506592
-0.0488281	-0.000915527	-0.0497437
-0.0476074	-0.00183105	-0.0494385
-0.0463867	-0.00274658	-0.0491333
-0.045166	-0.00335693	-0.0485229
-0.0442505	-0.00396729	-0.0482178
-0.0436401	-0.00427246	-0.0479126
-0.043335	-0.00427246	-0.0476074
-0.0430298	-0.00427246	-0.0473022
-0.0430298	-0.00366211	-0.0466919
-0.0430298	-0.00335693	-0.0463867
-0.043335	-0.00274658	-0.0460815
-0.0436401	-0.00244141	-0.0460815
-0.0439453	-0.00244141	-0.0463867
-0.0442505	-0.00305176	-0.0473022
-0.0442505	-0.00366211	-0.0479126
-0.0442505	-0.00488281	-0.0491333
-0.0442505	-0.00610352	-0.050354
-0.0442505	-0.00732422	-0.0515747
-0.0442505	-0.00854492	-0.0527954
-0.0442505	-0.00946045	-0.0537109
-0.0445557	-0.00976563	-0.0543213
-0.0448608	-0.00976563	-0.0546265
-0.0445557	-0.0088501	-0.0534058
-0.0436401	-0.00793457	-0.0515747
-0.0421143	-0.00701904	-0.0491333
-0.0408936	-0.00579834	-0.0466919
-0.039978	-0.00457764	-0.0445557
-0.0393677	-0.00305176	-0.0424194
-0.0387573	-0.00183105	-0.0405884
-0.038147	-0.0012207	-0.0393677
-0.0372314	-0.000915527	-0.038147
-0.0363159	-0.000915527	-0.0372314
-0.0363159	-0.0012207	-0.0375366
-0.0366211	-0.00152588	-0.038147
-0.0375366	-0.00183105	-0.0393677
-0.0387573	-0.00213623	-0.0408936
-0.0393677	-0.00274658	-0.0421143
-0.039978	-0.00335693	-0.043335
-0.0405884	-0.00366211	-0.0442505
-0.0411987	-0.00427246	-0.0454712
-0.0421143	-0.00457764	-0.0466919
-0.0427246	-0.00488281	-0.0476074
-0.0427246	-0.00518799	-0.0479126
-0.0424194	-0.00579834	-0.0482178
-0.0421143	-0.00640869	-0.0485229
-0.0418091	-0.00701904	-0.0488281
-0.0415039	-0.00793457	-0.0494385
-0.0411987	-0.0088501	-0.0500488
-0.0411987	-0.00946045	-0.0506592
-0.0415039	-0.00976563	-0.0512695
-0.0421143	-0.0100708	-0.0521851
-0.0427246	-0.010376	-0.0531006
-0.0436401	-0.0109863	-0.0546265
-0.0448608	-0.0112915	-0.0561523
-0.0463867	-0.0115967	-0.0579834
-0.0479126	-0.0115967	-0.0595093
-0.0491333	-0.0115967	-0.06073
-0.0500488	-0.0115967	-0.0616455
-0.0509644	-0.0115967	-0.062561
-0.0518799	-0.0119019	-0.0637817
-0.0521851	-0.0119019	-0.0640869
-0.0521851	-0.0119019	-0.0640869
-0.0515747	-0.0119019	-0.0634766
-0.0515747	-0.0115967	-0.0631714
-0.0515747	-0.0112915	-0.0628662
-0.0515747	-0.0115967	-0.0631714
-0.0509644	-0.0119019	-0.0628662
-0.0500488	-0.0125122	-0.062561
-0.0494385	-0.0131226	-0.062561
-0.0491333	-0.0137329	-0.0628662
-0.0488281	-0.0146484	-0.0634766
-0.0485229	-0.0152588	-0.0637817
-0.0482178	-0.0164795	-0.0646973
-0.0479126	-0.017395	-0.0653076
-0.0476074	-0.0183105	-0.065918
-0.0469971	-0.0186157	-0.0656128
-0.0466919	-0.0183105	-0.0650024
-0.0463867	-0.0180054	-0.0643921
-0.0460815	-0.0177002	-0.0637817
-0.0454712	-0.017395	-0.0628662
-0.0445557	-0.0167847	-0.0613403
-0.0436401	-0.0164795	-0.0601196
-0.0427246	-0.0161743	-0.0588989
-0.0421143	-0.0161743	-0.0582886
-0.0421143	-0.0161743	-0.0582886
-0.0427246	-0.0161743	-0.0588989
-0.043335	-0.0167847	-0.0601196
-0.0436401	-0.0177002	-0.0613403
-0.0439453	-0.0192261	-0.0631714
-0.0445557	-0.020752	-0.0653076
-0.045166	-0.0216675	-0.0668335
-0.0454712	-0.0219727	-0.0674438
-0.0454712	-0.022583	-0.0680542
-0.045166	-0.022583	-0.067749
