Stethoscope	ECG
0.110474	-0.0387573
0.166626	-0.0393677
0.1651	-0.039978
0.140381	-0.0415039
0.0961304	-0.043335
0.0390625	-0.0445557
-0.0302124	-0.0460815
-0.105286	-0.0485229
-0.152283	-0.0509644
-0.157776	-0.0521851
-0.133057	-0.0537109
-0.0869751	-0.0552368
-0.0268555	-0.0561523
0.0558472	-0.0564575
0.146484	-0.0558472
0.195923	-0.0546265
0.184937	-0.0521851
0.126343	-0.0494385
0.0576782	-0.0473022
-0.00640869	-0.0463867
-0.06073	-0.0469971
-0.0942993	-0.0485229
-0.118103	-0.050354
-0.124512	-0.0521851
-0.0897217	-0.0540161
-0.0543213	-0.0558472
-0.0268555	-0.057373
0.0497437	-0.0582886
0.111084	-0.0588989
0.122986	-0.0592041
0.102234	-0.0585938
0.0460815	-0.0567627
-0.0131226	-0.0549316
-0.055542	-0.0537109
-0.0900269	-0.0531006
-0.123291	-0.0531006
-0.148621	-0.0527954
-0.142212	-0.0521851
-0.0704956	-0.0512695
0.0421143	-0.0494385
0.145264	-0.0466919
0.20874	-0.0424194
0.198059	-0.0363159
0.133667	-0.0289917
0.0695801	-0.020752
0.0189209	-0.0112915
-0.0476074	-0.00183105
-0.119629	0.00732422
-0.151978	0.0158691
-0.140381	0.0241089
-0.118713	0.0320435
-0.104675	0.0384521
-0.078125	0.0424194
-0.0332642	0.0445557
0.0296021	0.0460815
0.0933838	0.0488281
0.136414	0.0524902
0.131531	0.0576782
0.107117	0.0631714
0.0738525	0.0692749
0.0271606	0.0753784
-0.0137329	0.0814819
-0.0265503	0.0875854
-0.0213623	0.0921631
-0.022583	0.0942993
-0.0375366	0.0933838
-0.06073	0.0900269
-0.0827026	0.0839233
-0.0628662	0.0756836
-0.010376	0.0650024
0.0186157	0.0534058
0.0186157	0.0415039
0.00366211	0.0292969
0.00427246	0.0170898
0.0408936	0.00549316
0.0646973	-0.00549316
0.0436401	-0.0161743
-0.00793457	-0.0271606
-0.0476074	-0.038147
-0.0552368	-0.0479126
-0.039978	-0.0564575
-0.0112915	-0.0640869
0.0210571	-0.0708008
0.039978	-0.0769043
0.0463867	-0.0814819
0.0177002	-0.0836182
-0.0354004	-0.0845337
-0.0485229	-0.0848389
-0.0289917	-0.0845337
0.00915527	-0.0839233
0.0430298	-0.083313
0.0616455	-0.083313
0.0692749	-0.083313
0.0598145	-0.0839233
0.0308228	-0.0848389
0.00335693	-0.0863647
-0.0372314	-0.0878906
-0.085144	-0.0897217
-0.0982666	-0.0912476
-0.0744629	-0.0924683
-0.0534058	-0.0930786
-0.0372314	-0.0930786
-0.00488281	-0.0927734
0.0271606	-0.0924683
0.0537109	-0.0927734
0.0732422	-0.093689
0.0537109	-0.093689
0.0183105	-0.0933838
0	-0.0924683
-0.0125122	-0.0918579
-0.0296021	-0.0915527
-0.0296021	-0.0915527
-0.0216675	-0.0912476
-0.0112915	-0.0906372
0.000305176	-0.0897217
-0.0100708	-0.088501
-0.0131226	-0.0872803
-0.00183105	-0.0860596
0.0222778	-0.085144
0.0534058	-0.085144
0.0671387	-0.0854492
0.0518799	-0.0854492
0.0137329	-0.0848389
-0.0183105	-0.0845337
-0.027771	-0.0845337
-0.039978	-0.0845337
-0.027771	-0.0845337
-0.0088501	-0.0839233
0.0012207	-0.0827026
0.0137329	-0.0817871
-0.00946045	-0.0814819
-0.0393677	-0.0817871
-0.0695801	-0.0808716
-0.0744629	-0.0775146
-0.0167847	-0.0714111
0.0283813	-0.062561
0.0601196	-0.0512695
0.0756836	-0.0369263
0.0784302	-0.0189209
0.0759888	0.00244141
0.0186157	0.0265503
-0.0247192	0.0537109
-0.072937	0.0827026
-0.108643	0.114136
-0.0845337	0.149536
-0.0656128	0.187378
-0.0106812	0.222168
0.0479126	0.248108
0.103455	0.263062
0.158997	0.267334
0.122681	0.258789
0.0527954	0.23468
-0.0350952	0.193176
-0.111389	0.135803
-0.137939	0.0674438
-0.144348	-0.00549316
-0.105591	-0.0756836
-0.0531006	-0.137024
0.00579834	-0.184631
0.0799561	-0.214844
0.122681	-0.226135
0.150146	-0.218811
0.118103	-0.196228
0.045166	-0.162964
0.00244141	-0.124512
-0.0500488	-0.0857544
-0.0692749	-0.0518799
-0.0585938	-0.0256348
-0.0320435	-0.00854492
0.00793457	0
-0.00518799	0.000305176
-0.0567627	-0.00457764
-0.0918579	-0.012207
-0.0985718	-0.0198364
-0.0430298	-0.0268555
0.0335693	-0.0323486
0.0946045	-0.0357056
0.153198	-0.0372314
0.189514	-0.0369263
0.191956	-0.0357056
0.129395	-0.0335693
-0.00579834	-0.0314331
-0.151367	-0.0292969
-0.263062	-0.0274658
-0.310364	-0.0265503
-0.291748	-0.0253296
-0.209961	-0.0238037
-0.0912476	-0.0222778
0.0332642	-0.0210571
0.183716	-0.0204468
0.317078	-0.0195313
0.39032	-0.0177002
0.415955	-0.015564
0.335388	-0.0140381
0.169983	-0.0128174
-0.0180054	-0.0115967
-0.228577	-0.0109863
-0.398865	-0.0109863
-0.473022	-0.0112915
-0.415649	-0.0112915
-0.268555	-0.0109863
-0.116882	-0.0100708
0.0280762	-0.00915527
0.13855	-0.00823975
0.209656	-0.00701904
0.270081	-0.00457764
0.274048	-0.000915527
0.240479	0.00274658
0.178833	0.00671387
0.0869751	0.010376
-0.00518799	0.0131226
-0.109253	0.0149536
-0.202332	0.015564
-0.241089	0.0152588
-0.211487	0.0143433
-0.119324	0.0134277
-0.0262451	0.0125122
0.0540161	0.0119019
0.130615	0.0112915
0.158386	0.0115967
0.141907	0.0128174
0.0994873	0.0143433
0.0186157	0.0164795
-0.0616455	0.0195313
-0.10498	0.0228882
-0.111389	0.0253296
-0.10376	0.0274658
-0.0854492	0.0299072
-0.032959	0.0326538
0.0350952	0.03479
0.0845337	0.0363159
0.093689	0.038147
0.0802612	0.0405884
0.0665283	0.043335
0.03479	0.0457764
-0.0140381	0.0479126
-0.0567627	0.050354
-0.078125	0.0531006
-0.0619507	0.0558472
-0.0485229	0.0579834
-0.0424194	0.0598145
-0.0289917	0.0613403
-0.0402832	0.0631714
-0.0186157	0.0653076
0.043335	0.0680542
0.0860596	0.071106
0.116272	0.0744629
0.116577	0.078125
0.0891113	0.0827026
0.0796509	0.0872803
0.0570679	0.0915527
0.00762939	0.09552
-0.0576782	0.0997925
-0.102234	0.104065
-0.106506	0.107727
-0.110474	0.111694
-0.0927734	0.115662
-0.100708	0.119629
-0.123291	0.123596
-0.0741577	0.127563
-0.0268555	0.131226
0.0527954	0.134888
0.139771	0.139465
0.177612	0.143738
0.194092	0.148315
0.134277	0.152588
0.0546265	0.157166
-0.0112915	0.161438
-0.0790405	0.166016
-0.0952148	0.170898
-0.118103	0.176086
-0.118713	0.181274
-0.0985718	0.186157
-0.078125	0.190735
-0.00305176	0.194397
0.0335693	0.198059
0.0576782	0.202026
0.0769043	0.205383
0.055542	0.20813
0.0784302	0.209961
0.0671387	0.212097
0.0421143	0.214844
0.0143433	0.218201
-0.0259399	0.221558
-0.0143433	0.223694
-0.00152588	0.22522
0.0222778	0.226135
0.038147	0.22644
0.0201416	0.225525
0.00732422	0.223694
-0.0363159	0.220947
-0.0802612	0.21698
-0.127563	0.211792
-0.155029	0.205078
-0.121765	0.197449
-0.0668335	0.189209
0.00335693	0.180969
0.0561523	0.172729
0.0808716	0.163574
0.0952148	0.154114
0.10437	0.143738
0.0823975	0.133057
0.038147	0.12207
0.0271606	0.111084
0.039978	0.100403
0.0463867	0.0894165
0.0164795	0.078125
-0.0354004	0.0668335
-0.0708008	0.0564575
-0.0900269	0.0473022
-0.0662231	0.0390625
-0.0518799	0.0308228
-0.0448608	0.0228882
-0.00732422	0.0158691
0.0186157	0.0100708
0.032959	0.00549316
0.0222778	0.0012207
0.00213623	-0.00305176
-0.0201416	-0.00732422
-0.0180054	-0.0112915
-0.00274658	-0.0146484
0.0421143	-0.0177002
0.159607	-0.0204468
0.265503	-0.0234985
0.224915	-0.0256348
0.104065	-0.0268555
-0.0656128	-0.0274658
-0.253906	-0.0280762
-0.329895	-0.0286865
-0.348511	-0.0289917
-0.310364	-0.0286865
-0.228882	-0.0280762
-0.153198	-0.0271606
0.00488281	-0.0259399
0.215759	-0.0256348
0.41748	-0.0250244
0.512085	-0.0244141
0.467834	-0.0238037
0.294495	-0.0234985
0.0418091	-0.0228882
-0.193787	-0.0219727
-0.341187	-0.0213623
-0.403748	-0.0210571
-0.354309	-0.0210571
-0.215454	-0.020752
-0.0369263	-0.0204468
0.166321	-0.0204468
0.307922	-0.0201416
0.354614	-0.0192261
0.319519	-0.017395
0.170593	-0.0152588
-0.0411987	-0.0134277
-0.232544	-0.0109863
-0.332031	-0.00854492
-0.335388	-0.00671387
-0.270691	-0.00549316
-0.181885	-0.00488281
-0.0888062	-0.00366211
0.0424194	-0.00274658
0.162354	-0.00183105
0.21759	-0.00152588
0.220032	-0.00183105
0.19043	-0.00213623
0.108643	-0.00183105
0.0518799	-0.000610352
0.00335693	0.000915527
-0.0454712	0.00244141
-0.0772095	0.00274658
-0.0808716	0.00244141
-0.0476074	0.00213623
-0.0106812	0.00152588
0.0119019	0.00152588
0.0219727	0.0012207
0.0415039	0.000610352
0.0491333	-0.000305176
0.0509644	-0.000305176
0.0204468	-0.000305176
-0.0128174	-0.000915527
-0.0592041	-0.00213623
-0.067749	-0.00335693
-0.0610352	-0.00427246
-0.0442505	-0.00518799
-0.0216675	-0.00579834
0.0177002	-0.00671387
0.0585938	-0.00823975
0.090332	-0.00976563
0.0839233	-0.0100708
0.0350952	-0.00915527
-0.03479	-0.00823975
-0.108337	-0.00701904
-0.162048	-0.00640869
-0.193481	-0.00640869
-0.1474	-0.00701904
-0.0369263	-0.00762939
0.085144	-0.00854492
0.150146	-0.00976563
0.146179	-0.0109863
0.0790405	-0.012207
0.0167847	-0.0137329
-0.0198364	-0.0149536
-0.0274658	-0.015564
-0.0286865	-0.0158691
-0.0128174	-0.0158691
-0.00335693	-0.015564
0.0161743	-0.0152588
0.0259399	-0.0152588
0.0125122	-0.015564
0.0216675	-0.0167847
0.0335693	-0.0180054
0.0448608	-0.0198364
0.0509644	-0.0213623
0.0271606	-0.022583
-0.00732422	-0.0238037
-0.022583	-0.0244141
-0.0204468	-0.0250244
-0.0143433	-0.0256348
-0.0183105	-0.0262451
-0.0177002	-0.0265503
-0.00671387	-0.0262451
0.00427246	-0.0256348
0.00335693	-0.0250244
-0.020752	-0.0259399
-0.0375366	-0.0271606
-0.0418091	-0.0274658
-0.0317383	-0.0271606
-0.00640869	-0.0265503
0.012207	-0.0262451
0.0534058	-0.0262451
0.098877	-0.0265503
0.105286	-0.0265503
0.0601196	-0.0265503
-0.022583	-0.0265503
-0.126953	-0.0259399
-0.186462	-0.0247192
-0.197144	-0.0231934
-0.176392	-0.0222778
-0.127563	-0.0213623
-0.0454712	-0.0201416
0.0552368	-0.0180054
0.162964	-0.0152588
0.243225	-0.0131226
0.259399	-0.0115967
0.205688	-0.0109863
0.12085	-0.0100708
0.0244141	-0.00854492
-0.0628662	-0.00579834
-0.119934	-0.000915527
-0.143738	0.00549316
-0.140381	0.0131226
-0.0894165	0.0222778
-0.0210571	0.0320435
0.0448608	0.0411987
0.085144	0.050354
0.0878906	0.0598145
0.0772095	0.0692749
0.0384521	0.0772095
-0.00762939	0.0827026
-0.0646973	0.0854492
-0.0991821	0.0872803
-0.107422	0.0897217
-0.10498	0.0933838
-0.090332	0.0982666
-0.0799561	0.102844
-0.0439453	0.107727
0.0305176	0.112915
0.115356	0.118103
0.162659	0.122986
0.166321	0.126648
0.136414	0.128174
0.0900269	0.127563
0.0283813	0.124817
-0.0476074	0.119934
-0.105591	0.11261
-0.136719	0.102844
-0.125427	0.0924683
-0.123596	0.0811768
-0.119324	0.0692749
-0.0769043	0.0576782
0.017395	0.0460815
0.122681	0.03479
0.19043	0.0241089
0.196838	0.0140381
0.152893	0.00396729
0.0973511	-0.00579834
0.0134277	-0.0143433
-0.057373	-0.0213623
-0.137939	-0.027771
-0.193787	-0.0332642
-0.193787	-0.0375366
-0.136108	-0.0405884
-0.0421143	-0.0424194
0.0537109	-0.0439453
0.136414	-0.0445557
0.149231	-0.0445557
0.120239	-0.0442505
0.0552368	-0.0436401
-0.0323486	-0.043335
-0.102234	-0.0436401
-0.125122	-0.0448608
-0.0875854	-0.0457764
-0.0256348	-0.0457764
0.0253296	-0.0460815
0.045166	-0.0469971
0.0732422	-0.0479126
0.0866699	-0.0485229
0.0817871	-0.0488281
0.0518799	-0.0488281
0.00457764	-0.0491333
-0.0415039	-0.0494385
-0.06073	-0.0494385
-0.0668335	-0.0497437
-0.0714111	-0.0497437
-0.0485229	-0.0497437
0.00244141	-0.0494385
0.0601196	-0.0494385
0.109863	-0.0497437
0.105286	-0.0500488
0.0253296	-0.0509644
-0.0317383	-0.0515747
-0.0524902	-0.0518799
-0.0704956	-0.0518799
-0.085144	-0.0518799
-0.0997925	-0.0524902
-0.0805664	-0.0527954
-0.0180054	-0.0524902
0.0482178	-0.0515747
0.0762939	-0.0509644
0.0769043	-0.0500488
0.0686646	-0.0485229
0.0683594	-0.0469971
0.0668335	-0.045166
0.0314331	-0.0439453
-0.0366211	-0.043335
-0.0582886	-0.0436401
-0.0405884	-0.0442505
-0.0198364	-0.0448608
-0.00366211	-0.0445557
-0.00915527	-0.0418091
-0.0152588	-0.0363159
-0.00579834	-0.027771
-0.00305176	-0.0161743
-0.0241089	-0.0012207
-0.050354	0.0167847
-0.0476074	0.038147
-0.0244141	0.0628662
0.0115967	0.090332
0.039978	0.118713
0.0363159	0.148926
0.0247192	0.182495
0.022583	0.218811
0.012207	0.253296
0.0012207	0.280457
-0.000610352	0.297241
-0.000305176	0.302124
0.00823975	0.2948
0.0131226	0.274048
0.00305176	0.236816
-0.000915527	0.183105
-0.0088501	0.116577
-0.0244141	0.0439453
-0.0234985	-0.0274658
-0.0216675	-0.0909424
-0.0305176	-0.141602
-0.012207	-0.175781
0.0140381	-0.19043
0.0280762	-0.186157
0.0305176	-0.166626
0.0219727	-0.136108
0.00457764	-0.0997925
0.0238037	-0.0628662
0.0582886	-0.0296021
0.0952148	-0.00213623
0.111694	0.017395
0.0866699	0.0280762
0.0170898	0.0302124
-0.0845337	0.0265503
-0.198669	0.0189209
-0.281677	0.00976563
-0.296326	0.00183105
-0.216675	-0.00366211
-0.0680542	-0.00640869
0.0927734	-0.00762939
0.209656	-0.00793457
0.284729	-0.00701904
0.321045	-0.00549316
0.280762	-0.00366211
0.158386	-0.00152588
0.00488281	0.000305176
-0.138855	0.00213623
-0.239258	0.00274658
-0.260925	0.00213623
-0.232849	0.00152588
-0.174255	0.0012207
-0.0961304	0.000915527
0.0216675	0.000915527
0.14801	0.0012207
0.255127	0.00213623
0.295105	0.00305176
0.267944	0.00396729
0.198059	0.00549316
0.111694	0.00701904
-0.0247192	0.00854492
-0.155029	0.00946045
-0.237122	0.0109863
-0.289001	0.0128174
-0.298462	0.0143433
-0.27771	0.015564
-0.220947	0.0164795
-0.128174	0.0177002
0.00762939	0.0189209
0.146179	0.020752
0.22583	0.022583
0.245667	0.0241089
0.231323	0.0259399
0.155029	0.0274658
0.06073	0.0292969
-0.0241089	0.0317383
-0.0753784	0.0335693
-0.0759888	0.0357056
-0.0387573	0.0375366
0.0180054	0.0390625
0.0640869	0.0402832
0.057373	0.0405884
0.0396729	0.0405884
0.039978	0.0402832
0.0222778	0.0402832
-0.0167847	0.0408936
-0.0411987	0.0418091
-0.0772095	0.0430298
-0.105286	0.0448608
-0.0836182	0.0473022
-0.0439453	0.0500488
0.00610352	0.0531006
0.0817871	0.0561523
0.130615	0.0579834
0.116577	0.0592041
0.0561523	0.06073
-0.0531006	0.0619507
-0.158691	0.0631714
-0.222168	0.0643921
-0.213623	0.065918
-0.155029	0.067749
-0.0686646	0.0695801
0.0286865	0.0720215
0.136719	0.0741577
0.222168	0.0769043
0.230408	0.0793457
0.189209	0.0817871
0.148315	0.0842285
0.0839233	0.0860596
-0.0115967	0.0881958
-0.0793457	0.0906372
-0.151367	0.093689
-0.166626	0.0967407
-0.134277	0.0997925
-0.0967407	0.103149
-0.0799561	0.107727
-0.0482178	0.11261
-0.0137329	0.117188
0.0396729	0.12085
0.0830078	0.124512
0.117798	0.128479
0.111694	0.132446
0.108032	0.136719
0.0949097	0.140686
0.0326538	0.144958
-0.0238037	0.149536
-0.0689697	0.154114
-0.09552	0.158691
-0.0680542	0.162659
-0.0222778	0.166321
-0.0311279	0.169983
-0.0192261	0.17395
-0.00335693	0.178223
0.00549316	0.18219
0.0326538	0.185547
0.0494385	0.188904
0.0317383	0.191956
-0.0143433	0.195313
-0.0256348	0.199585
-0.0378418	0.203857
-0.0219727	0.207825
-0.0244141	0.212097
-0.0180054	0.21637
0.0332642	0.220337
0.0820923	0.223389
0.0671387	0.22583
0.0109863	0.227966
-0.0454712	0.228882
-0.112305	0.229797
-0.098877	0.229797
-0.0750732	0.228882
-0.043335	0.227051
-0.00518799	0.224304
0.0479126	0.220947
0.0906372	0.216675
0.12085	0.212097
0.112305	0.206909
0.0836182	0.201416
0.0482178	0.195313
0.00457764	0.188599
-0.043335	0.180969
-0.108032	0.172119
-0.0854492	0.162354
-0.0357056	0.151672
-0.00183105	0.140686
0.0161743	0.1297
0.00915527	0.118713
0.0271606	0.107727
0.0134277	0.0970459
0.00244141	0.0860596
-0.015564	0.0753784
-0.0341797	0.0656128
-0.0469971	0.0564575
-0.0506592	0.0479126
-0.0247192	0.0393677
-0.0512695	0.0314331
-0.0515747	0.0238037
-0.00152588	0.0170898
0.0366211	0.0112915
0.0921631	0.00549316
0.104065	0
0.0634766	-0.00457764
0.000610352	-0.00762939
-0.0256348	-0.010376
-0.0439453	-0.0128174
-0.045166	-0.0149536
0.0488281	-0.0170898
0.171509	-0.0192261
0.218811	-0.0219727
0.209656	-0.0247192
0.102539	-0.0262451
-0.067749	-0.0271606
-0.229187	-0.027771
-0.335083	-0.0283813
-0.376282	-0.0286865
-0.400085	-0.0283813
-0.306396	-0.0268555
-0.133057	-0.0253296
0.0939941	-0.0238037
0.378113	-0.0231934
0.547485	-0.022583
0.567932	-0.0219727
0.463562	-0.0213623
0.204163	-0.0210571
-0.0982666	-0.0210571
-0.372009	-0.020752
-0.522766	-0.020752
-0.497742	-0.0201416
-0.329895	-0.0189209
-0.103455	-0.017395
0.0765991	-0.0164795
0.184631	-0.0158691
0.271606	-0.0152588
0.334473	-0.0146484
0.314941	-0.0137329
0.242615	-0.0131226
0.0973511	-0.0125122
-0.0662231	-0.0119019
-0.209656	-0.0119019
-0.277405	-0.0112915
-0.265198	-0.00976563
-0.192261	-0.00823975
-0.0927734	-0.00732422
-0.00183105	-0.00640869
0.0772095	-0.00579834
0.0900269	-0.00579834
0.0613403	-0.00579834
0.0238037	-0.00579834
0.0213623	-0.00549316
0.0354004	-0.00518799
0.0286865	-0.00457764
0.0265503	-0.00396729
0.0195313	-0.00366211
0.0262451	-0.00335693
0.0567627	-0.00305176
0.0476074	-0.00213623
0.00854492	-0.00152588
-0.0375366	-0.000610352
-0.0360107	0.000305176
-0.00946045	0.000915527
-0.020752	0.000915527
-0.0247192	0.000915527
-0.0256348	0.000305176
-0.0354004	-0.000610352
-0.0308228	-0.00183105
-0.0280762	-0.00274658
-0.0192261	-0.00366211
0.00610352	-0.00427246
0.0616455	-0.00579834
0.119019	-0.00793457
0.121765	-0.00946045
0.0646973	-0.0100708
-0.0109863	-0.0109863
-0.0802612	-0.0119019
-0.12146	-0.0128174
-0.147705	-0.0137329
-0.134277	-0.0140381
-0.0570679	-0.0146484
0.0222778	-0.0149536
0.0918579	-0.0158691
0.122375	-0.0164795
0.112915	-0.0167847
0.0857544	-0.0170898
0.0500488	-0.0177002
0.00549316	-0.0177002
-0.055542	-0.0183105
-0.119019	-0.0192261
-0.142822	-0.0201416
-0.0894165	-0.0204468
-0.00396729	-0.0204468
0.0613403	-0.020752
0.0875854	-0.020752
0.0881958	-0.0210571
0.0756836	-0.0213623
0.0375366	-0.0210571
-0.00946045	-0.020752
-0.0601196	-0.0204468
-0.0878906	-0.0204468
-0.062561	-0.0210571
-0.00610352	-0.0213623
0.0256348	-0.0216675
0.0228882	-0.0222778
0.00823975	-0.0228882
0.0137329	-0.0234985
0.0213623	-0.0241089
-0.00671387	-0.0250244
-0.0308228	-0.0250244
-0.038147	-0.0250244
-0.0180054	-0.0247192
0.0280762	-0.0250244
0.0344849	-0.0256348
0.012207	-0.0262451
-0.00488281	-0.0265503
-0.0204468	-0.0262451
-0.012207	-0.0262451
0.0314331	-0.0265503
0.0488281	-0.0268555
0.0314331	-0.0271606
0.0259399	-0.0268555
0.0250244	-0.0259399
0.0088501	-0.0253296
-0.00640869	-0.0244141
-0.0479126	-0.0234985
-0.0946045	-0.022583
-0.0915527	-0.020752
-0.0695801	-0.0177002
-0.057373	-0.0134277
-0.010376	-0.00793457
0.0643921	-0.000915527
0.122375	0.00732422
0.122986	0.0164795
0.0662231	0.0265503
0.0268555	0.0366211
-0.000305176	0.0463867
-0.0152588	0.055542
-0.0430298	0.0631714
-0.0772095	0.0689697
-0.0891113	0.0735474
-0.0753784	0.0772095
-0.0189209	0.0808716
0.0274658	0.0845337
0.0552368	0.0881958
0.0515747	0.0921631
0.0238037	0.0973511
0.0128174	0.103149
-0.0183105	0.108643
-0.0421143	0.11261
-0.0415039	0.114746
-0.0167847	0.115356
0.0320435	0.11322
0.0531006	0.108643
0.057373	0.102234
0.0546265	0.0939941
0.0762939	0.0845337
0.0820923	0.0741577
0.0320435	0.0634766
-0.0354004	0.0534058
-0.104675	0.0442505
-0.152893	0.0354004
-0.174561	0.0265503
-0.160217	0.0177002
-0.101624	0.00823975
-0.0158691	-0.00213623
0.0894165	-0.0119019
0.144958	-0.020752
0.166321	-0.0289917
0.151367	-0.0366211
0.119019	-0.043335
0.0906372	-0.0488281
0.0375366	-0.0524902
-0.0250244	-0.0549316
-0.104065	-0.0564575
-0.15686	-0.0570679
-0.168152	-0.0570679
-0.132141	-0.0570679
-0.0653076	-0.0570679
-0.0143433	-0.057373
0.055542	-0.057373
0.115356	-0.0576782
0.150146	-0.0585938
0.137634	-0.0592041
0.0888062	-0.0595093
0.0527954	-0.0598145
0.0112915	-0.0601196
-0.0140381	-0.0601196
-0.0317383	-0.0601196
-0.0738525	-0.0601196
-0.122681	-0.0604248
-0.151367	-0.0613403
-0.135498	-0.0619507
-0.0842285	-0.0616455
-0.0238037	-0.06073
0.0506592	-0.0604248
0.0949097	-0.0601196
0.111694	-0.0598145
0.0906372	-0.0592041
0.0299072	-0.0585938
-0.0149536	-0.0579834
-0.0280762	-0.0576782
-0.00854492	-0.0570679
0.0152588	-0.0567627
0.00793457	-0.0567627
0.0106812	-0.0567627
0.032959	-0.0564575
0.0497437	-0.0558472
0.0256348	-0.0552368
-0.0289917	-0.0552368
-0.0582886	-0.0552368
-0.0378418	-0.0552368
-0.0109863	-0.0549316
0.0131226	-0.0543213
0.00549316	-0.0540161
-0.0222778	-0.0540161
-0.0344849	-0.0543213
-0.0350952	-0.0546265
-0.0476074	-0.0552368
-0.0537109	-0.0543213
-0.0170898	-0.0509644
0.0262451	-0.0442505
0.0616455	-0.03479
0.0848389	-0.0228882
0.0671387	-0.00793457
0.0238037	0.00854492
0.00244141	0.0268555
0.00274658	0.0469971
0.0115967	0.0695801
0.0332642	0.0946045
0.0320435	0.122986
-0.0146484	0.155945
-0.0604248	0.192261
-0.09552	0.22583
-0.0994873	0.250854
-0.0643921	0.265503
-0.0286865	0.269165
0.00488281	0.261536
0.0308228	0.240479
0.0238037	0.203247
0.00396729	0.150757
0.0183105	0.0866699
0.0454712	0.017395
0.0521851	-0.0494385
0.0796509	-0.107422
0.0848389	-0.151062
0.0488281	-0.176697
0.0192261	-0.184021
-0.0143433	-0.176392
-0.0799561	-0.155945
-0.132446	-0.126038
-0.148926	-0.0909424
-0.101318	-0.0564575
0.00640869	-0.0259399
0.0830078	-0.00213623
0.138855	0.0134277
0.140991	0.0210571
0.0964355	0.0222778
0.00274658	0.0186157
-0.0863647	0.0119019
-0.138245	0.00366211
-0.0915527	-0.00335693
0.00854492	-0.0088501
0.0958252	-0.0131226
0.0964355	-0.0158691
0.0494385	-0.0170898
0.0149536	-0.017395
-0.00274658	-0.0170898
-0.027771	-0.0167847
-0.0588989	-0.0158691
-0.0991821	-0.0140381
-0.112305	-0.0115967
-0.0949097	-0.00854492
-0.103149	-0.00579834
-0.0985718	-0.00335693
-0.0665283	-0.000610352
-0.0177002	0.00213623
0.0982666	0.00518799
0.212402	0.00732422
0.274353	0.0088501
0.272827	0.00946045
0.218506	0.00946045
0.128174	0.00915527
0.00610352	0.0088501
-0.129395	0.00823975
-0.257874	0.00793457
-0.291443	0.00823975
-0.260315	0.00946045
-0.194092	0.0109863
-0.0875854	0.0131226
0.0421143	0.015564
0.133362	0.0183105
0.206299	0.020752
0.223083	0.022583
0.170288	0.0238037
0.0830078	0.0241089
-0.0183105	0.0241089
-0.0872803	0.0244141
-0.148315	0.0247192
-0.177612	0.0250244
-0.175476	0.0256348
-0.123291	0.0265503
-0.0531006	0.0283813
0.0177002	0.0308228
0.0750732	0.0332642
0.124512	0.0354004
0.17395	0.0372314
0.166016	0.0390625
0.130005	0.0408936
0.065918	0.0418091
0.0109863	0.0415039
-0.0320435	0.0411987
-0.0546265	0.0408936
-0.0628662	0.0415039
-0.0918579	0.0427246
-0.10437	0.0439453
-0.104065	0.045166
-0.0793457	0.0466919
-0.0375366	0.0482178
-0.00366211	0.050354
0.0363159	0.0524902
0.0765991	0.0546265
0.100403	0.0564575
0.108643	0.0579834
0.0799561	0.0598145
0.0234985	0.06073
-0.0189209	0.0622559
-0.0524902	0.0646973
-0.0579834	0.0683594
-0.0653076	0.0717163
-0.0598145	0.0750732
-0.0195313	0.078125
0.00946045	0.0814819
0.0238037	0.085144
0.0231934	0.0891113
0.0100708	0.0927734
0.0140381	0.0961304
0.022583	0.0994873
0.000915527	0.103149
-0.0442505	0.107422
-0.0543213	0.111694
-0.0216675	0.116577
0.0143433	0.121155
0.0274658	0.125732
0.00976563	0.1297
-0.00579834	0.133972
-0.017395	0.13855
-0.0125122	0.143127
0.00732422	0.147095
0.0323486	0.150146
0.0158691	0.153198
0.00610352	0.15625
0.0274658	0.159607
0.0210571	0.163269
0.0253296	0.167236
0.0427246	0.171814
0.0344849	0.175781
0.0134277	0.179443
-0.0320435	0.183411
-0.0906372	0.187378
-0.104065	0.19165
-0.0689697	0.196228
-0.0305176	0.19989
-0.00518799	0.202942
0.0259399	0.206604
0.0439453	0.210571
0.0723267	0.214233
0.0888062	0.217285
0.0567627	0.219421
0.0119019	0.221558
-0.0112915	0.223389
-0.0186157	0.224609
-0.0106812	0.225525
-0.00823975	0.22522
-0.0436401	0.224304
-0.0601196	0.222473
-0.0534058	0.220337
-0.0604248	0.21698
-0.0402832	0.212708
0.00366211	0.20813
0.0088501	0.203247
0.0244141	0.196838
0.0646973	0.189514
0.0863647	0.181885
0.0842285	0.17395
0.0457764	0.1651
0.00274658	0.15564
-0.00579834	0.145569
-0.0332642	0.135193
-0.0671387	0.124207
-0.0582886	0.113525
-0.0305176	0.102844
-0.00457764	0.0924683
0.00335693	0.0827026
0.00976563	0.0738525
0.0241089	0.0656128
0.0241089	0.057373
0.0253296	0.0491333
0.0466919	0.0411987
0.0186157	0.032959
-0.0485229	0.0247192
-0.0808716	0.017395
-0.0753784	0.010376
-0.0683594	0.00396729
-0.0280762	-0.00244141
0.0442505	-0.00823975
0.0805664	-0.0128174
0.0683594	-0.0158691
0.00915527	-0.0183105
-0.0741577	-0.0198364
-0.0674438	-0.0210571
0.0576782	-0.0210571
0.163879	-0.020752
0.202942	-0.0213623
0.165405	-0.0231934
0.0512695	-0.0253296
-0.104675	-0.0271606
-0.258179	-0.0286865
-0.340881	-0.0302124
-0.327759	-0.0317383
-0.241699	-0.0335693
-0.0817871	-0.0344849
0.157471	-0.03479
0.386658	-0.0341797
0.473022	-0.032959
0.445251	-0.0317383
0.268555	-0.0305176
-0.0299072	-0.0289917
-0.32135	-0.0274658
-0.511169	-0.0250244
-0.551453	-0.022583
-0.381775	-0.0204468
-0.0637817	-0.0186157
0.223999	-0.0167847
0.469055	-0.0152588
0.61554	-0.0134277
0.575256	-0.0125122
0.368652	-0.0115967
0.0271606	-0.0112915
-0.370483	-0.0112915
-0.671082	-0.0115967
-0.748596	-0.0115967
-0.587158	-0.0112915
-0.293274	-0.0106812
0.038147	-0.0100708
0.33844	-0.00915527
0.50415	-0.00793457
0.515442	-0.00610352
0.432434	-0.00335693
0.271301	-0.000915527
0.0543213	0.000610352
-0.119324	0.00183105
-0.202026	0.00274658
-0.249939	0.00366211
-0.268555	0.00396729
-0.220947	0.00396729
-0.132446	0.00335693
-0.0360107	0.00244141
0.0515747	0.000915527
0.0967407	-0.000305176
0.135193	-0.0012207
0.142517	-0.00213623
0.126648	-0.00366211
0.0881958	-0.00488281
0.0415039	-0.00610352
-0.0250244	-0.00701904
-0.0415039	-0.00793457
-0.0476074	-0.00854492
-0.0552368	-0.00915527
-0.06073	-0.00915527
-0.0436401	-0.00915527
-0.0482178	-0.00915527
-0.0521851	-0.00915527
-0.0238037	-0.00915527
-0.00427246	-0.00915527
0.0134277	-0.00946045
0.015564	-0.0100708
0.00427246	-0.0115967
-0.000915527	-0.0131226
0.0228882	-0.0149536
0.017395	-0.0170898
0.0302124	-0.0192261
0.0494385	-0.0213623
0.0546265	-0.0241089
0.0302124	-0.0268555
0.00183105	-0.0286865
-0.0238037	-0.0296021
-0.0305176	-0.0296021
-0.0231934	-0.0292969
-0.0271606	-0.0289917
-0.0387573	-0.0296021
-0.032959	-0.0302124
-0.00488281	-0.0308228
0.0280762	-0.0314331
0.0314331	-0.0314331
0.0216675	-0.0305176
0.0134277	-0.0299072
0.0198364	-0.0292969
0.0186157	-0.0292969
-0.00305176	-0.0283813
-0.0445557	-0.0262451
-0.0549316	-0.0222778
-0.0384521	-0.0167847
-0.032959	-0.010376
-0.0189209	-0.00305176
-0.0109863	0.00488281
0.0268555	0.0131226
0.0784302	0.0213623
0.101929	0.0296021
0.0775146	0.0372314
0.0238037	0.0442505
-0.0131226	0.0497437
-0.0375366	0.0537109
-0.0592041	0.0564575
-0.0823975	0.0588989
-0.106201	0.0619507
-0.0872803	0.0656128
-0.0247192	0.0698853
0.0354004	0.0744629
0.0753784	0.0793457
0.107117	0.0839233
0.123596	0.0888062
0.112915	0.0933838
0.0512695	0.0973511
-0.0262451	0.0994873
-0.0961304	0.0985718
-0.12146	0.0939941
-0.102844	0.0875854
-0.0704956	0.0799561
-0.045166	0.0704956
-0.015564	0.0604248
0.0454712	0.0497437
0.098877	0.038147
0.10437	0.0262451
0.0592041	0.0137329
0.000610352	0.00183105
-0.0515747	-0.00915527
-0.0701904	-0.0198364
-0.0616455	-0.0302124
-0.039978	-0.0396729
-0.027771	-0.0476074
0.0012207	-0.0540161
0.0534058	-0.0598145
0.0863647	-0.0646973
0.0759888	-0.0680542
0.0524902	-0.0701904
0.0363159	-0.0717163
0.0167847	-0.0735474
-0.0152588	-0.0750732
-0.0463867	-0.0759888
-0.0744629	-0.0772095
-0.0915527	-0.0784302
-0.0787354	-0.0799561
-0.0619507	-0.0811768
-0.0305176	-0.0823975
0.0216675	-0.0830078
0.0570679	-0.0836182
0.0860596	-0.0845337
0.0991821	-0.085144
0.102539	-0.0860596
0.0921631	-0.0866699
0.0357056	-0.0869751
-0.0213623	-0.0872803
-0.0918579	-0.0878906
-0.163879	-0.088501
-0.17395	-0.0894165
-0.138855	-0.0897217
-0.0747681	-0.0894165
0.0180054	-0.0891113
0.0790405	-0.088501
0.110474	-0.0875854
0.123291	-0.0872803
0.110168	-0.0878906
0.0894165	-0.0894165
0.0601196	-0.0906372
0.0183105	-0.0921631
-0.0222778	-0.0933838
-0.0308228	-0.093689
-0.0369263	-0.0933838
-0.0650024	-0.0930786
-0.0854492	-0.0933838
-0.0598145	-0.0924683
-0.0164795	-0.0906372
-0.00152588	-0.0878906
0.00183105	-0.085144
-0.0109863	-0.0830078
-0.0170898	-0.0814819
0.015564	-0.0805664
0.0466919	-0.0799561
0.0430298	-0.0802612
-0.00854492	-0.0814819
-0.0350952	-0.083313
-0.00793457	-0.0854492
0.0537109	-0.0857544
0.0714111	-0.0827026
0.0332642	-0.0769043
-0.0195313	-0.0686646
-0.0271606	-0.0579834
-0.00854492	-0.0448608
-0.0250244	-0.0302124
-0.050354	-0.0140381
-0.0286865	0.00396729
0.0241089	0.0238037
0.06073	0.0466919
0.045166	0.0744629
-0.00152588	0.108337
-0.0112915	0.145264
-0.00396729	0.179138
-0.00732422	0.204468
-0.0143433	0.218201
-0.032959	0.220032
-0.0268555	0.212402
0.00305176	0.192261
0.0549316	0.15686
0.0717163	0.106812
0.0610352	0.0454712
0.0253296	-0.0210571
-0.0262451	-0.0854492
-0.0762939	-0.140076
-0.120239	-0.179138
-0.168457	-0.201111
-0.192871	-0.206909
-0.136414	-0.198975
-0.0466919	-0.180054
0.0265503	-0.153198
0.0918579	-0.121765
0.162964	-0.0900269
0.227051	-0.0619507
0.241699	-0.0396729
0.171204	-0.0238037
0.0616455	-0.0146484
-0.0283813	-0.0115967
-0.0827026	-0.0128174
-0.0967407	-0.0170898
-0.10376	-0.022583
-0.100708	-0.0280762
-0.0692749	-0.0320435
-0.0363159	-0.0341797
-0.0164795	-0.03479
-0.00457764	-0.0344849
-0.00732422	-0.0335693
-0.000305176	-0.0326538
0.0177002	-0.0320435
0.0109863	-0.0320435
-0.0167847	-0.0317383
-0.0201416	-0.0317383
-0.0152588	-0.0314331
0.00335693	-0.0311279
0.0466919	-0.0308228
0.050354	-0.0308228
0.0524902	-0.0299072
0.0698853	-0.0280762
0.0628662	-0.0259399
0.0576782	-0.0241089
0.0195313	-0.0228882
-0.0088501	-0.0219727
-0.020752	-0.0201416
-0.00823975	-0.0183105
-0.00518799	-0.0170898
-0.0442505	-0.0167847
-0.0735474	-0.0170898
-0.0646973	-0.0167847
-0.0650024	-0.0161743
-0.0357056	-0.0152588
-0.0250244	-0.0137329
-0.0534058	-0.0119019
-0.0314331	-0.0106812
-0.00335693	-0.00976563
0.0253296	-0.00915527
0.0604248	-0.00823975
0.0662231	-0.00732422
0.0756836	-0.00610352
0.0665283	-0.00457764
0.0201416	-0.00274658
-0.0198364	-0.000915527
-0.0628662	0.0012207
-0.0942993	0.00305176
-0.0836182	0.00549316
-0.0408936	0.00762939
-0.000610352	0.0100708
0.0418091	0.0128174
0.0924683	0.0152588
0.123901	0.0177002
0.133667	0.0192261
0.0872803	0.0204468
-0.00854492	0.0213623
-0.067749	0.0216675
-0.0775146	0.0222778
-0.0601196	0.0231934
-0.0436401	0.0250244
-0.0344849	0.0271606
-0.0262451	0.0289917
-0.0213623	0.0305176
-0.0280762	0.0314331
-0.0363159	0.0320435
-0.0561523	0.032959
-0.0717163	0.0344849
-0.0497437	0.0357056
0.000610352	0.0366211
0.0567627	0.0378418
0.0808716	0.0396729
0.100708	0.0418091
0.133362	0.0448608
0.13092	0.0494385
0.098877	0.0543213
0.0476074	0.0598145
-0.00610352	0.065918
-0.0332642	0.0714111
-0.0836182	0.0750732
-0.144348	0.0784302
-0.171509	0.0817871
-0.15686	0.0854492
-0.100403	0.0881958
-0.0222778	0.0909424
0.0595093	0.093689
0.105286	0.0967407
0.118408	0.0994873
0.112305	0.102844
0.045166	0.106812
-0.0448608	0.111389
-0.0857544	0.116272
-0.0872803	0.121155
-0.0305176	0.126343
0.0616455	0.131531
0.101318	0.136414
0.109863	0.140991
0.11322	0.145264
0.0521851	0.149231
-0.0314331	0.152283
-0.0799561	0.155334
-0.10498	0.158691
-0.105591	0.162048
-0.0717163	0.165405
-0.0213623	0.169067
0.0183105	0.172424
0.0161743	0.175781
-0.015564	0.179443
-0.000610352	0.1828
0.0296021	0.185547
0.0262451	0.187683
0.0164795	0.189819
0.0149536	0.192261
0.0119019	0.195007
0.0112915	0.197754
0.0222778	0.200195
-0.000915527	0.202942
-0.0201416	0.205688
-0.0012207	0.207825
0.0234985	0.209045
0.0445557	0.209045
0.045166	0.207214
0.0256348	0.203552
0.0134277	0.197754
-0.012207	0.190125
-0.0622559	0.18158
-0.113525	0.171509
-0.115967	0.160828
-0.0527954	0.149536
0.00335693	0.138855
0.027771	0.128174
0.0469971	0.117798
0.0595093	0.107422
0.0701904	0.0973511
0.0747681	0.0872803
0.0546265	0.0778198
-0.00488281	0.0683594
-0.0637817	0.0595093
-0.0817871	0.0512695
-0.0698853	0.0430298
-0.0469971	0.0341797
-0.0418091	0.0244141
-0.027771	0.015564
0.00518799	0.00762939
0.0546265	-0.000610352
0.0775146	-0.00823975
0.0640869	-0.0152588
0.0393677	-0.0219727
0.0216675	-0.0280762
0.00274658	-0.0326538
-0.0125122	-0.0357056
0.00976563	-0.038147
-0.00793457	-0.0402832
-0.0765991	-0.0418091
-0.108643	-0.0424194
-0.0579834	-0.043335
0.0756836	-0.0445557
0.158386	-0.0457764
0.214844	-0.0479126
0.204773	-0.0497437
0.0808716	-0.0515747
-0.0845337	-0.0527954
-0.223999	-0.0537109
-0.312805	-0.0546265
-0.289001	-0.0558472
-0.151367	-0.0567627
0.00640869	-0.057373
0.170898	-0.057373
0.296326	-0.0567627
0.291138	-0.0552368
0.134583	-0.0527954
-0.116577	-0.050354
-0.358582	-0.0482178
-0.482788	-0.0463867
-0.422058	-0.0442505
-0.192261	-0.0421143
0.155334	-0.0396729
0.491638	-0.0375366
0.722351	-0.0357056
0.766907	-0.0341797
0.566101	-0.032959
0.196533	-0.0320435
-0.197754	-0.0323486
-0.503845	-0.0323486
-0.691528	-0.0323486
-0.753784	-0.0323486
-0.687561	-0.0317383
-0.472107	-0.0314331
-0.120239	-0.0314331
0.266418	-0.0323486
0.537415	-0.0323486
0.656433	-0.0320435
0.633545	-0.0308228
0.489502	-0.0302124
0.262451	-0.0292969
0.00976563	-0.0280762
-0.210266	-0.0268555
-0.377808	-0.0253296
-0.435181	-0.0247192
-0.387878	-0.0253296
-0.307617	-0.0259399
-0.198975	-0.0259399
-0.0445557	-0.0253296
0.12085	-0.0247192
0.250549	-0.0238037
0.296631	-0.022583
0.263062	-0.0219727
0.205994	-0.0213623
0.137329	-0.0213623
0.0430298	-0.0219727
-0.0796509	-0.0231934
-0.198669	-0.0244141
-0.259094	-0.0265503
-0.229187	-0.0292969
-0.1297	-0.0326538
-0.0286865	-0.0357056
0.0543213	-0.0384521
0.121765	-0.0402832
0.155334	-0.0408936
0.15564	-0.0408936
0.118408	-0.0408936
0.0521851	-0.039978
-0.0183105	-0.0393677
-0.0546265	-0.0393677
-0.0561523	-0.039978
-0.0531006	-0.0405884
-0.0653076	-0.0411987
-0.0714111	-0.0405884
-0.0595093	-0.0390625
-0.0415039	-0.0369263
-0.0262451	-0.0344849
-0.00152588	-0.0311279
0.0378418	-0.0265503
0.0634766	-0.0198364
0.0680542	-0.0119019
0.065918	-0.00396729
0.0350952	0.00335693
0.00366211	0.0106812
0	0.0180054
-0.00976563	0.0250244
-0.0265503	0.0311279
-0.045166	0.0363159
-0.057373	0.0408936
-0.0360107	0.045166
-0.00823975	0.0497437
-0.0158691	0.0543213
-0.0222778	0.0598145
-0.00213623	0.065918
0.0408936	0.0717163
0.0778198	0.0775146
0.072937	0.0836182
0.0302124	0.0894165
-0.00274658	0.0949097
-0.0241089	0.098877
-0.050354	0.100098
-0.0628662	0.0973511
-0.0512695	0.0909424
-0.0259399	0.0817871
0.00213623	0.0708008
0.0299072	0.0588989
0.0402832	0.0463867
0.0390625	0.032959
0.0247192	0.0195313
0.00549316	0.00610352
0.00396729	-0.00640869
0.0106812	-0.0180054
0.00915527	-0.0283813
0.00274658	-0.0378418
0.00183105	-0.0460815
0.00427246	-0.0537109
-0.00549316	-0.0613403
-0.0286865	-0.0686646
-0.0534058	-0.0756836
-0.0415039	-0.0817871
-0.0088501	-0.0866699
0.0109863	-0.0897217
0.0198364	-0.0912476
0.0415039	-0.0918579
0.0524902	-0.0918579
0.0271606	-0.0924683
-0.0119019	-0.0933838
-0.050354	-0.0946045
-0.0695801	-0.0961304
-0.0540161	-0.0973511
-0.0274658	-0.098877
0.00579834	-0.100708
0.0366211	-0.101929
0.0570679	-0.103149
0.0634766	-0.103149
0.0418091	-0.103455
0.000610352	-0.104065
-0.0289917	-0.104675
-0.027771	-0.105286
-0.00915527	-0.105286
-0.0012207	-0.10498
0.00213623	-0.10437
0.0137329	-0.103455
0.0256348	-0.103149
0.0323486	-0.102844
0.00854492	-0.102539
-0.045166	-0.101624
-0.0949097	-0.0991821
-0.103149	-0.0967407
-0.0689697	-0.0952148
-0.0109863	-0.0942993
0.0494385	-0.0942993
0.0796509	-0.0942993
0.078125	-0.0946045
0.062561	-0.0952148
0.0332642	-0.0958252
0.00488281	-0.0961304
-0.022583	-0.0964355
-0.0292969	-0.0964355
-0.00640869	-0.0961304
0.00701904	-0.0952148
-0.00427246	-0.0946045
-0.022583	-0.0946045
-0.0238037	-0.0946045
-0.0134277	-0.093689
-0.00183105	-0.0924683
0.00732422	-0.0915527
0.00549316	-0.0912476
0.0128174	-0.0921631
0.0280762	-0.0930786
0.0244141	-0.0924683
0.00335693	-0.0891113
-0.0222778	-0.0823975
-0.0424194	-0.072937
-0.0357056	-0.0613403
-0.0195313	-0.0476074
-0.0125122	-0.0320435
-0.0112915	-0.0140381
0.000610352	0.00701904
0.0326538	0.0311279
0.0683594	0.0576782
0.0634766	0.0888062
0.0354004	0.125427
0.0180054	0.1651
-0.000610352	0.200195
-0.0180054	0.225525
-0.032959	0.237732
-0.0524902	0.236816
-0.0778198	0.223999
-0.0842285	0.197144
-0.0637817	0.154114
-0.0323486	0.0964355
-0.000610352	0.0283813
0.0488281	-0.0436401
0.105591	-0.112
0.108337	-0.169678
0.0723267	-0.210876
0.032959	-0.233459
0.00457764	-0.238037
-0.00335693	-0.226746
-0.00701904	-0.202942
-0.0341797	-0.171204
-0.0668335	-0.135803
-0.0839233	-0.100708
-0.0701904	-0.0698853
-0.0259399	-0.0457764
0.00793457	-0.0296021
0.0180054	-0.0210571
0.0311279	-0.0189209
0.0454712	-0.0213623
0.0469971	-0.0265503
0.0448608	-0.0332642
0.0558472	-0.0396729
0.0570679	-0.0448608
0.0448608	-0.0476074
0.0137329	-0.0488281
-0.0485229	-0.0482178
-0.101624	-0.0463867
-0.124512	-0.0439453
-0.122986	-0.0418091
-0.0967407	-0.039978
-0.0683594	-0.038147
-0.0500488	-0.0360107
-0.00457764	-0.0338745
0.0650024	-0.0323486
0.110168	-0.0314331
0.126343	-0.0305176
0.152893	-0.0292969
0.175476	-0.0283813
0.186157	-0.0274658
0.136108	-0.0271606
0.00915527	-0.0268555
-0.121155	-0.0265503
-0.204468	-0.0268555
-0.23468	-0.0271606
-0.19165	-0.0274658
-0.123291	-0.0280762
-0.0827026	-0.0280762
-0.027771	-0.027771
0.0570679	-0.0265503
0.122986	-0.0250244
0.138245	-0.022583
0.126343	-0.0204468
0.0878906	-0.0180054
0.0405884	-0.015564
0.0012207	-0.0131226
-0.0308228	-0.010376
-0.0570679	-0.00854492
-0.0866699	-0.00732422
-0.0979614	-0.00640869
-0.104675	-0.00549316
-0.108032	-0.00518799
-0.0906372	-0.00518799
-0.0320435	-0.00457764
0.0671387	-0.00396729
0.159607	-0.00305176
0.230408	-0.00183105
0.258484	-0.000610352
0.197754	0.000915527
0.0863647	0.00244141
-0.00427246	0.00366211
-0.105896	0.00579834
-0.191345	0.00823975
-0.215149	0.010376
-0.171814	0.0119019
-0.100098	0.0134277
-0.0476074	0.0152588
-0.0167847	0.017395
0.00701904	0.0201416
0.0500488	0.0228882
0.0759888	0.0256348
0.0671387	0.0283813
0.0344849	0.0308228
0.0241089	0.032959
0.0537109	0.0350952
0.0750732	0.0375366
0.0326538	0.0396729
-0.0238037	0.0427246
-0.0540161	0.0460815
-0.0570679	0.0497437
-0.0289917	0.0527954
0.0204468	0.055542
0.0372314	0.0579834
0.022583	0.0604248
0.0167847	0.0634766
0.00610352	0.0674438
-0.0231934	0.0714111
-0.0604248	0.0750732
-0.0772095	0.078125
-0.0616455	0.0817871
-0.0253296	0.0866699
0.0238037	0.0918579
0.0674438	0.0973511
0.0906372	0.102539
0.0738525	0.107422
0.0119019	0.112305
-0.0588989	0.118103
-0.111084	0.123596
-0.0939941	0.128174
-0.022583	0.132751
0.0469971	0.137329
0.0686646	0.141602
0.067749	0.145569
0.0274658	0.149231
-0.0143433	0.152893
-0.0238037	0.157166
-0.0354004	0.160828
-0.0274658	0.164185
0.0106812	0.167847
0.0308228	0.171814
0.057373	0.176086
0.0674438	0.180969
0.0491333	0.185547
0.0228882	0.190125
-0.00579834	0.194397
-0.0338745	0.198059
-0.0863647	0.200806
-0.122681	0.202942
-0.09552	0.205078
-0.0183105	0.206909
0.0497437	0.20874
0.0680542	0.209961
0.0518799	0.210571
0.00793457	0.210571
-0.0164795	0.209961
-0.0219727	0.209045
-0.0292969	0.207214
-0.0158691	0.203857
0.000915527	0.198975
0.0604248	0.19165
0.110779	0.183411
0.0726318	0.174255
0.0192261	0.164795
-0.0186157	0.154419
-0.0469971	0.143433
-0.0445557	0.132751
-0.0558472	0.122375
-0.0576782	0.112305
-0.0567627	0.101929
-0.0378418	0.0918579
0.00579834	0.0820923
0.0320435	0.0720215
0.0506592	0.0619507
0.0500488	0.0518799
0.038147	0.0421143
0.0311279	0.032959
0.0112915	0.0244141
-0.00946045	0.0158691
-0.00823975	0.00762939
-0.0186157	0.000305176
-0.0262451	-0.00701904
-0.0518799	-0.0143433
-0.0744629	-0.0210571
-0.0430298	-0.0271606
-0.0012207	-0.0326538
0.0305176	-0.0375366
0.0436401	-0.0424194
0.0314331	-0.0466919
0.015564	-0.0497437
0.00823975	-0.0512695
0	-0.0518799
-0.0405884	-0.0521851
-0.102234	-0.0524902
-0.113831	-0.0531006
0.00274658	-0.0540161
0.172729	-0.0546265
0.287781	-0.0558472
0.349731	-0.0567627
0.259399	-0.0576782
0.0390625	-0.0585938
-0.190125	-0.0595093
-0.410767	-0.0604248
-0.526428	-0.06073
-0.46051	-0.0604248
-0.271912	-0.0595093
0.0152588	-0.0582886
0.296326	-0.0564575
0.469666	-0.0546265
0.50354	-0.0527954
0.36377	-0.0509644
0.0952148	-0.0494385
-0.213623	-0.0485229
-0.444031	-0.0473022
-0.497742	-0.0463867
-0.348816	-0.0454712
-0.0369263	-0.0445557
0.300903	-0.0430298
0.539551	-0.0415039
0.614929	-0.0402832
0.476685	-0.0396729
0.147095	-0.0387573
-0.226746	-0.0375366
-0.536804	-0.0357056
-0.655518	-0.0335693
-0.573425	-0.0323486
-0.362549	-0.0317383
-0.090332	-0.0314331
0.148621	-0.0311279
0.328064	-0.0308228
0.430908	-0.0308228
0.460815	-0.0305176
0.404358	-0.0305176
0.258484	-0.0302124
0.0720215	-0.0302124
-0.119019	-0.0305176
-0.259705	-0.0305176
-0.336914	-0.0299072
-0.368652	-0.0296021
-0.320129	-0.0296021
-0.209351	-0.0296021
-0.0595093	-0.0296021
0.0866699	-0.0296021
0.184631	-0.0296021
0.224915	-0.0296021
0.223083	-0.0296021
0.193176	-0.0292969
0.119934	-0.0292969
0.0201416	-0.0296021
-0.0512695	-0.0296021
-0.0402832	-0.0302124
-0.0219727	-0.0314331
-0.0479126	-0.0332642
-0.0802612	-0.0350952
-0.114136	-0.0372314
-0.106201	-0.0390625
-0.0744629	-0.0405884
-0.03479	-0.0415039
0.00152588	-0.0421143
0.0598145	-0.0424194
0.119324	-0.0427246
0.146484	-0.0430298
0.123596	-0.0430298
0.0546265	-0.0436401
-0.0106812	-0.0442505
-0.0494385	-0.0448608
-0.088501	-0.045166
-0.098877	-0.0454712
-0.0933838	-0.0463867
-0.0762939	-0.0473022
-0.0198364	-0.0485229
0.0369263	-0.0491333
0.0476074	-0.0494385
0.0289917	-0.0491333
0.0259399	-0.0488281
0.0283813	-0.0491333
0.0402832	-0.0500488
0.0302124	-0.0512695
-0.0170898	-0.0524902
-0.0387573	-0.0534058
-0.0366211	-0.0543213
-0.0299072	-0.0543213
-0.0256348	-0.0537109
-0.03479	-0.0518799
-0.0427246	-0.0491333
-0.0198364	-0.045166
0.0231934	-0.0402832
0.0494385	-0.0338745
0.0613403	-0.0262451
0.0695801	-0.0177002
0.0720215	-0.0088501
0.0759888	0
0.0427246	0.00854492
-0.0149536	0.0167847
-0.0613403	0.0244141
-0.0939941	0.0314331
-0.0894165	0.0372314
-0.0604248	0.0424194
-0.039978	0.0469971
-0.00854492	0.0521851
0.0378418	0.0576782
0.0769043	0.0628662
0.0732422	0.0680542
0.0335693	0.0735474
0.00549316	0.0778198
-0.00396729	0.0820923
-0.00244141	0.0857544
-0.00610352	0.0875854
-0.0134277	0.0863647
-0.0274658	0.0820923
-0.0292969	0.0753784
-0.00366211	0.0668335
0.00701904	0.0564575
0.00244141	0.0448608
-0.00244141	0.032959
-0.0213623	0.0210571
-0.0259399	0.00915527
-0.0350952	-0.00244141
-0.0494385	-0.0131226
-0.0436401	-0.0228882
-0.0149536	-0.0317383
0.0354004	-0.0405884
0.0619507	-0.0488281
0.0537109	-0.0570679
0.0363159	-0.0650024
0.0161743	-0.0726318
0.0216675	-0.0799561
0.0125122	-0.0857544
-0.0088501	-0.0900269
-0.00366211	-0.0933838
0.0146484	-0.0961304
0.0317383	-0.0979614
0.00305176	-0.0991821
-0.0299072	-0.0994873
-0.0439453	-0.0994873
-0.0521851	-0.0997925
-0.0231934	-0.100403
-0.0134277	-0.101013
-0.010376	-0.101929
0.00152588	-0.102539
0.0140381	-0.103149
0.0332642	-0.10376
0.017395	-0.10437
0.00366211	-0.10498
0.00823975	-0.105591
0.00305176	-0.105591
0.00274658	-0.105286
-0.012207	-0.105286
-0.0415039	-0.105286
-0.0415039	-0.105286
-0.0274658	-0.104675
0.00823975	-0.10437
0.0302124	-0.10376
0.0201416	-0.103149
0.015564	-0.103149
0.0299072	-0.103149
0.0448608	-0.103455
0.0219727	-0.10376
-0.00427246	-0.104065
-0.0164795	-0.104065
-0.0119019	-0.10437
0.0106812	-0.10437
0.0244141	-0.10376
0.00610352	-0.102539
-0.0241089	-0.101318
-0.0326538	-0.0997925
-0.020752	-0.0985718
-0.0375366	-0.0973511
-0.0720215	-0.0964355
-0.0588989	-0.0964355
0.0170898	-0.0967407
0.0915527	-0.0970459
0.120239	-0.0979614
0.0915527	-0.0985718
0.0265503	-0.0985718
-0.020752	-0.098877
-0.0445557	-0.0991821
-0.0756836	-0.0997925
-0.103455	-0.098877
-0.0930786	-0.0952148
-0.0473022	-0.0869751
-0.0357056	-0.0747681
0.00732422	-0.0585938
0.100098	-0.0390625
0.136108	-0.0167847
0.118408	0.00854492
0.0570679	0.0372314
-0.0332642	0.0689697
-0.0973511	0.102539
-0.105286	0.137024
-0.0701904	0.173035
-0.0250244	0.211182
0.0119019	0.248718
0.0323486	0.279846
0.0543213	0.299072
0.0814819	0.305176
0.09552	0.297241
0.0701904	0.273438
0.00518799	0.232544
-0.0631714	0.174255
-0.098877	0.101624
-0.0930786	0.0201416
-0.0799561	-0.0631714
-0.0683594	-0.140076
-0.0418091	-0.204468
-0.00549316	-0.250549
0.0430298	-0.275879
0.0894165	-0.279846
0.107422	-0.264587
0.117493	-0.235291
0.105896	-0.196838
0.0753784	-0.154114
0.0222778	-0.11322
-0.0473022	-0.0775146
-0.102844	-0.0506592
-0.129089	-0.0335693
-0.11322	-0.0259399
-0.0820923	-0.0259399
-0.0445557	-0.0308228
0.00701904	-0.0384521
0.0512695	-0.0466919
0.0918579	-0.0546265
0.0970459	-0.0601196
0.0396729	-0.0628662
-0.0109863	-0.0631714
-0.0360107	-0.0622559
-0.043335	-0.06073
-0.032959	-0.0579834
-0.0408936	-0.0552368
-0.0497437	-0.0527954
-0.0418091	-0.0509644
-0.0378418	-0.0497437
-0.0265503	-0.0488281
-0.0115967	-0.0473022
0.022583	-0.0457764
0.0775146	-0.0442505
0.122375	-0.043335
0.143738	-0.0427246
0.126343	-0.0418091
0.0830078	-0.0402832
0.027771	-0.0384521
-0.0241089	-0.0366211
-0.0704956	-0.0357056
-0.144958	-0.0350952
-0.193176	-0.0344849
-0.17395	-0.0338745
-0.123291	-0.0332642
-0.045166	-0.0326538
0.0256348	-0.0320435
0.0802612	-0.0308228
0.133667	-0.0299072
0.169373	-0.0286865
0.164795	-0.027771
0.102234	-0.0262451
0.00854492	-0.0247192
-0.0759888	-0.0231934
-0.143433	-0.0219727
-0.180359	-0.0210571
-0.168457	-0.0192261
-0.0958252	-0.0170898
0.0244141	-0.0146484
0.137329	-0.0128174
0.20752	-0.0112915
0.217285	-0.0100708
0.17395	-0.00823975
0.0961304	-0.00579834
0.0119019	-0.00396729
-0.0793457	-0.00244141
-0.175171	-0.0012207
-0.234375	0.000610352
-0.236206	0.00213623
-0.187683	0.00305176
-0.114746	0.00427246
-0.0387573	0.00640869
0.0479126	0.00854492
0.134583	0.0109863
0.20874	0.0131226
0.214539	0.0158691
0.162354	0.0183105
0.130005	0.0210571
0.0888062	0.0241089
0.0314331	0.0274658
-0.0415039	0.0299072
-0.14679	0.0320435
-0.20813	0.0341797
-0.202332	0.0357056
-0.150452	0.0378418
-0.0720215	0.0405884
0.00335693	0.0436401
0.0686646	0.0473022
0.108337	0.0506592
0.127563	0.0540161
0.126648	0.057373
0.0765991	0.0610352
0.020752	0.0643921
-0.00762939	0.0671387
-0.0256348	0.0704956
-0.0427246	0.0744629
-0.0616455	0.0790405
-0.0561523	0.083313
-0.0219727	0.0872803
0.0158691	0.0912476
0.0390625	0.0958252
0.0393677	0.101318
0.015564	0.107422
-0.0195313	0.11322
-0.0427246	0.118713
-0.0476074	0.123901
-0.0463867	0.129395
-0.0204468	0.134888
0.0198364	0.140076
0.0497437	0.144958
0.0747681	0.149536
0.0790405	0.154114
0.0488281	0.158997
0.0186157	0.163269
-0.0149536	0.167236
-0.0747681	0.170593
-0.14801	0.17395
-0.168457	0.177307
-0.130615	0.181274
-0.0723267	0.184937
0.00366211	0.188293
0.0631714	0.192261
0.115051	0.195923
0.145874	0.19989
0.153198	0.203247
0.122375	0.206299
0.0576782	0.20874
-0.00152588	0.210571
-0.0497437	0.212402
-0.0704956	0.213013
-0.0811768	0.212402
-0.0708008	0.210876
-0.0137329	0.209045
0.0421143	0.206299
0.0817871	0.202026
0.0906372	0.197144
0.0344849	0.191345
-0.0405884	0.184631
-0.0756836	0.177917
-0.0689697	0.169373
-0.0692749	0.159607
-0.0692749	0.149536
-0.0561523	0.13916
-0.00854492	0.128784
0.0552368	0.117493
0.0823975	0.105896
0.0491333	0.0942993
-0.0088501	0.0823975
-0.0387573	0.0708008
-0.0436401	0.0592041
-0.0259399	0.0479126
-0.00854492	0.0366211
0.0106812	0.0262451
0.0427246	0.0164795
0.0576782	0.00793457
0.0427246	-0.000305176
-0.00183105	-0.00854492
-0.0143433	-0.015564
-0.00152588	-0.0210571
0.0195313	-0.0253296
0.0238037	-0.0289917
0.0106812	-0.0320435
-0.012207	-0.0341797
-0.0265503	-0.0363159
-0.0372314	-0.0393677
-0.0393677	-0.0430298
-0.0360107	-0.0469971
-0.0231934	-0.0509644
-0.00335693	-0.0537109
0.012207	-0.0558472
0.0177002	-0.0579834
0.0131226	-0.0601196
-0.0119019	-0.0622559
0.0271606	-0.0634766
0.0671387	-0.0637817
-0.00732422	-0.0637817
0.0274658	-0.0634766
0.132751	-0.0628662
0.150452	-0.062561
0.17395	-0.0622559
0.128479	-0.0619507
-0.126648	-0.0619507
-0.350952	-0.0619507
-0.492249	-0.0616455
-0.52124	-0.06073
-0.346985	-0.0598145
-0.0631714	-0.0588989
0.282593	-0.0582886
0.605469	-0.0576782
0.739136	-0.0579834
0.622253	-0.0582886
0.282288	-0.0585938
-0.128174	-0.0588989
-0.47821	-0.0588989
-0.667725	-0.0588989
-0.682068	-0.0585938
-0.518799	-0.0570679
-0.20874	-0.0552368
0.168152	-0.0537109
0.516663	-0.0527954
0.751343	-0.0521851
0.782776	-0.0512695
0.593872	-0.0500488
0.261536	-0.0497437
-0.133972	-0.0497437
-0.479126	-0.0500488
-0.686646	-0.0497437
-0.702515	-0.0491333
-0.541077	-0.0479126
-0.301819	-0.0460815
-0.0320435	-0.0442505
0.183716	-0.0418091
0.308228	-0.0396729
0.362549	-0.0378418
0.354004	-0.0360107
0.30304	-0.0341797
0.205688	-0.0332642
0.0796509	-0.032959
-0.0384521	-0.0326538
-0.109253	-0.0323486
-0.163574	-0.0320435
-0.198364	-0.0317383
-0.188904	-0.0311279
-0.144653	-0.0305176
-0.0650024	-0.0302124
0.0195313	-0.0299072
0.0637817	-0.0296021
0.0808716	-0.0296021
0.0994873	-0.0299072
0.0921631	-0.0305176
0.0585938	-0.0308228
0.0299072	-0.0311279
0.0112915	-0.0314331
0.00671387	-0.0314331
-0.00427246	-0.0314331
-0.0119019	-0.0314331
-0.022583	-0.0314331
-0.0466919	-0.0317383
-0.0762939	-0.032959
-0.083313	-0.0341797
-0.0656128	-0.0357056
-0.0476074	-0.0372314
-0.00610352	-0.0396729
0.0454712	-0.0421143
0.0796509	-0.0442505
0.0924683	-0.0454712
0.0683594	-0.0460815
0.03479	-0.0463867
0.00732422	-0.0463867
-0.00915527	-0.0460815
-0.0497437	-0.0460815
-0.0918579	-0.0460815
-0.0994873	-0.0463867
-0.0805664	-0.0473022
-0.0482178	-0.0479126
-0.0012207	-0.0488281
0.0454712	-0.0500488
0.0759888	-0.0518799
0.100403	-0.0540161
0.108948	-0.0561523
0.0866699	-0.0570679
0.0439453	-0.0564575
-0.0125122	-0.055542
-0.0622559	-0.0549316
-0.0701904	-0.0546265
-0.0595093	-0.0543213
-0.0564575	-0.0540161
-0.0326538	-0.0537109
0.00427246	-0.0537109
0.027771	-0.0537109
0.0408936	-0.0543213
0.0228882	-0.0552368
0.0012207	-0.0567627
0.0137329	-0.0582886
0.0180054	-0.0595093
0.000915527	-0.0604248
-0.0164795	-0.06073
-0.0341797	-0.0604248
-0.0430298	-0.0598145
-0.017395	-0.0595093
0.0198364	-0.0592041
0.0512695	-0.0585938
0.0558472	-0.0576782
0.0268555	-0.0564575
-0.00549316	-0.0564575
-0.0344849	-0.0567627
-0.0598145	-0.0576782
-0.0653076	-0.0582886
-0.0439453	-0.0588989
-0.0143433	-0.0595093
0.000610352	-0.0601196
-0.00427246	-0.0610352
-0.00823975	-0.0616455
0.00274658	-0.0619507
0.0308228	-0.0622559
0.0588989	-0.0616455
0.0723267	-0.0610352
0.0570679	-0.0601196
0.0338745	-0.0595093
0.00915527	-0.0588989
-0.0338745	-0.0582886
-0.0598145	-0.0570679
-0.0747681	-0.055542
-0.0592041	-0.0527954
-0.00732422	-0.0491333
0.0244141	-0.0442505
0.0424194	-0.0390625
0.0415039	-0.0326538
0.0262451	-0.0247192
0.020752	-0.015564
0.00946045	-0.00549316
-0.0088501	0.00396729
-0.0112915	0.0131226
-0.0115967	0.0219727
-0.0140381	0.0305176
-0.00640869	0.0384521
-0.00823975	0.0442505
-0.0268555	0.0485229
-0.00823975	0.0515747
0.0115967	0.0543213
0.000610352	0.0567627
-0.0146484	0.0592041
-0.0445557	0.062561
-0.0448608	0.0662231
-0.000305176	0.0701904
0.022583	0.0741577
0.0296021	0.0784302
0.0311279	0.0827026
0.0299072	0.0860596
0.0540161	0.0875854
0.0570679	0.0866699
0.0305176	0.083313
0.00946045	0.0775146
-0.00701904	0.0695801
-0.0289917	0.0601196
-0.0521851	0.0491333
-0.0845337	0.0378418
-0.105591	0.0265503
-0.0909424	0.015564
-0.0427246	0.00518799
0.0201416	-0.00396729
0.0674438	-0.0128174
0.0985718	-0.0204468
0.112305	-0.0280762
0.121155	-0.0354004
0.106812	-0.0424194
0.0375366	-0.0494385
-0.0601196	-0.055542
-0.129395	-0.0616455
-0.164795	-0.0674438
-0.157471	-0.0723267
-0.125427	-0.0759888
-0.0643921	-0.0790405
0.027771	-0.0811768
0.12085	-0.0820923
0.174866	-0.0827026
0.166016	-0.0830078
0.115662	-0.0827026
0.0619507	-0.0823975
0.00915527	-0.0823975
-0.0350952	-0.0823975
-0.0756836	-0.0823975
-0.101318	-0.0823975
-0.0949097	-0.0823975
-0.0668335	-0.0830078
-0.0326538	-0.0839233
-0.0106812	-0.0845337
-0.00671387	-0.0845337
0.0125122	-0.0842285
0.0372314	-0.0836182
0.0448608	-0.083313
0.0387573	-0.0836182
0.022583	-0.083313
0.0216675	-0.0830078
0.0234985	-0.0830078
0.0213623	-0.0830078
0.0210571	-0.083313
0.00671387	-0.0842285
-0.0189209	-0.085144
-0.0375366	-0.0857544
-0.0564575	-0.0857544
-0.0750732	-0.0854492
-0.0692749	-0.085144
-0.0543213	-0.0845337
-0.0363159	-0.083313
0.00152588	-0.0814819
0.0216675	-0.0796509
0.0259399	-0.078125
0.0549316	-0.0765991
0.0753784	-0.0759888
0.085144	-0.0759888
0.0823975	-0.0765991
0.0537109	-0.0769043
0.0387573	-0.0769043
0.0332642	-0.0769043
0.00244141	-0.0765991
-0.0308228	-0.0765991
-0.083313	-0.0765991
-0.140686	-0.0762939
-0.140686	-0.0756836
-0.116272	-0.0744629
-0.0836182	-0.0735474
-0.0253296	-0.0723267
0.0350952	-0.0720215
0.0860596	-0.0720215
0.119324	-0.0723267
0.12146	-0.0720215
0.0970459	-0.0714111
0.0646973	-0.0692749
0.0421143	-0.0640869
0.0457764	-0.0543213
0.0543213	-0.0402832
0.0350952	-0.0222778
-0.0152588	-0.000610352
-0.0671387	0.0250244
-0.119019	0.0543213
-0.16449	0.0866699
-0.176392	0.12085
-0.150146	0.15625
-0.0753784	0.192261
-0.00244141	0.229797
0.0387573	0.26825
0.0726318	0.303955
0.111389	0.3302
0.143127	0.342407
0.1474	0.340576
0.107422	0.322876
0.0497437	0.288086
-0.00579834	0.235291
-0.0469971	0.1651
-0.0588989	0.0827026
-0.0564575	-0.00427246
-0.0439453	-0.0881958
-0.0219727	-0.162048
-0.0128174	-0.219727
-0.00274658	-0.256348
0.00823975	-0.270386
0.0088501	-0.262451
0.0219727	-0.236511
0.0363159	-0.197754
0.0320435	-0.152283
-0.00640869	-0.106201
-0.0491333	-0.0650024
-0.0689697	-0.0323486
-0.0720215	-0.0100708
-0.088501	0.00152588
-0.0942993	0.00488281
-0.0631714	0.00213623
0.0210571	-0.00396729
0.150452	-0.0119019
0.22522	-0.0189209
0.194702	-0.0247192
0.100403	-0.027771
-0.017395	-0.0289917
-0.118713	-0.0286865
-0.178223	-0.0271606
-0.205383	-0.0259399
-0.177917	-0.0244141
-0.100708	-0.0234985
0.0137329	-0.0234985
0.109558	-0.0241089
0.150452	-0.0250244
0.148926	-0.0259399
0.124817	-0.0259399
0.105286	-0.0256348
0.0875854	-0.0244141
0.0570679	-0.0228882
0.00640869	-0.0210571
-0.0363159	-0.0189209
-0.0634766	-0.0167847
-0.101318	-0.0143433
-0.122681	-0.012207
-0.130005	-0.00976563
-0.127563	-0.00793457
-0.0811768	-0.00701904
-0.0311279	-0.00640869
-0.0119019	-0.00579834
0.0344849	-0.00518799
0.0811768	-0.00427246
0.10437	-0.00366211
0.111694	-0.00335693
0.0802612	-0.00305176
0.0292969	-0.00183105
-0.0149536	-0.000610352
-0.0543213	0.000915527
-0.0720215	0.00213623
-0.0650024	0.00335693
-0.0402832	0.00457764
0.0170898	0.00610352
0.0942993	0.00762939
0.13031	0.00915527
0.0912476	0.00976563
0.0485229	0.010376
0.00610352	0.0106812
-0.0393677	0.0109863
-0.0601196	0.0119019
-0.0906372	0.0125122
-0.125427	0.0128174
-0.109863	0.0137329
-0.0671387	0.0146484
-0.0280762	0.0164795
0.0158691	0.0186157
0.0375366	0.0213623
0.0558472	0.0238037
0.0765991	0.0262451
0.0656128	0.0289917
0.0366211	0.0317383
0.0137329	0.0338745
0.0186157	0.0360107
0.0491333	0.038147
0.0601196	0.0405884
0.0314331	0.0430298
-0.0238037	0.0457764
-0.065918	0.0485229
-0.0848389	0.0506592
-0.0866699	0.0524902
-0.0704956	0.0543213
-0.0588989	0.0570679
-0.038147	0.0598145
0.0012207	0.062561
0.0534058	0.0653076
0.0863647	0.0680542
0.0909424	0.071106
0.102844	0.0744629
0.0958252	0.0778198
0.0653076	0.0817871
0.0131226	0.0857544
-0.0421143	0.0900269
-0.0683594	0.0942993
-0.0881958	0.0991821
-0.0997925	0.10376
-0.108948	0.108032
-0.108948	0.11261
-0.0762939	0.117493
-0.0314331	0.123291
0.0280762	0.129089
0.0726318	0.134277
0.0790405	0.138855
0.111084	0.143433
0.12146	0.14801
0.0952148	0.152588
0.0549316	0.15686
-0.0286865	0.161438
-0.072937	0.165405
-0.0650024	0.169678
-0.0534058	0.174561
-0.0463867	0.179749
-0.0482178	0.185242
-0.0344849	0.19104
-0.00946045	0.196838
0.00701904	0.202026
0.0247192	0.207214
0.0149536	0.212708
0.0109863	0.217896
0.0234985	0.222473
0.0286865	0.22583
0.0354004	0.228271
0.0262451	0.230713
0.0164795	0.232544
0.0344849	0.234375
0.03479	0.235901
0.0238037	0.237427
0.00671387	0.238342
-0.0231934	0.238342
-0.0241089	0.237427
-0.0320435	0.235291
-0.0646973	0.232544
-0.0793457	0.228271
-0.0863647	0.222778
-0.0698853	0.216064
-0.0387573	0.20813
-0.0164795	0.198975
0.0268555	0.187988
0.0808716	0.176697
0.13031	0.1651
0.131531	0.153198
0.0750732	0.141602
0.0192261	0.13031
-0.0241089	0.118713
-0.0442505	0.107727
-0.0387573	0.0967407
-0.0512695	0.0857544
-0.0430298	0.0750732
-0.0338745	0.0643921
-0.0311279	0.0540161
-0.0149536	0.0439453
-0.0390625	0.0341797
-0.0494385	0.0250244
-0.039978	0.0167847
-0.00457764	0.00915527
0.0595093	0.00183105
0.0622559	-0.00518799
0.0552368	-0.0119019
0.0534058	-0.0180054
0.0430298	-0.0231934
0.0527954	-0.027771
0.0317383	-0.0317383
0.0137329	-0.0350952
-0.000915527	-0.0384521
-0.0216675	-0.0415039
-0.020752	-0.0439453
-0.0476074	-0.0454712
-0.0817871	-0.0460815
-0.109558	-0.0466919
-0.0964355	-0.0473022
-0.0668335	-0.0479126
-0.0787354	-0.0485229
-0.00396729	-0.0494385
0.0521851	-0.0506592
0.157776	-0.0524902
0.338135	-0.0540161
0.353394	-0.0552368
0.317078	-0.0558472
0.201416	-0.0564575
-0.0778198	-0.0561523
-0.314331	-0.0561523
-0.511169	-0.0558472
-0.700684	-0.0552368
-0.756226	-0.0546265
-0.527039	-0.0537109
-0.0650024	-0.0531006
0.411682	-0.0521851
0.774841	-0.0512695
0.953674	-0.0506592
0.86731	-0.050354
0.552673	-0.050354
0.0973511	-0.0500488
-0.36438	-0.0494385
-0.693665	-0.0488281
-0.812988	-0.0485229
-0.712891	-0.0482178
-0.445862	-0.0476074
-0.09552	-0.0473022
0.263367	-0.0469971
0.529785	-0.0466919
0.637817	-0.0463867
0.58197	-0.0454712
0.370178	-0.0442505
0.0894165	-0.0430298
-0.155945	-0.0421143
-0.340271	-0.0415039
-0.442505	-0.0408936
-0.470886	-0.039978
-0.383911	-0.0393677
-0.194397	-0.0384521
-0.00976563	-0.0375366
0.154419	-0.0363159
0.230103	-0.0350952
0.23468	-0.0332642
0.24231	-0.0320435
0.214233	-0.0311279
0.18219	-0.0302124
0.115662	-0.0289917
0.045166	-0.027771
-0.0137329	-0.0265503
-0.0863647	-0.0259399
-0.117188	-0.0256348
-0.177307	-0.0256348
-0.192871	-0.0253296
-0.15686	-0.0253296
-0.127563	-0.0253296
-0.0772095	-0.0256348
-0.0231934	-0.0259399
0.0476074	-0.0262451
0.11261	-0.0265503
0.159607	-0.0265503
0.186768	-0.0262451
0.129395	-0.0259399
0.0445557	-0.0256348
-0.0259399	-0.0250244
-0.0527954	-0.0241089
-0.0738525	-0.0234985
-0.104675	-0.0238037
-0.100098	-0.0250244
-0.110168	-0.0262451
-0.0820923	-0.0271606
-0.0540161	-0.0280762
-0.0201416	-0.0286865
0.0393677	-0.0292969
0.110168	-0.0296021
0.176697	-0.0296021
0.207214	-0.0292969
0.167847	-0.0289917
0.0747681	-0.0286865
-0.0195313	-0.0283813
-0.102539	-0.0286865
-0.175476	-0.0299072
-0.194702	-0.0317383
-0.1651	-0.0335693
-0.0915527	-0.0360107
-0.00610352	-0.038147
0.0588989	-0.0402832
0.107422	-0.0421143
0.106812	-0.0430298
0.101013	-0.043335
0.0823975	-0.043335
0.045166	-0.0436401
-0.00732422	-0.0439453
-0.120239	-0.0445557
-0.102844	-0.0445557
0.0265503	-0.0445557
0.0857544	-0.0439453
0.0704956	-0.0430298
0.0140381	-0.0430298
-0.0387573	-0.0436401
-0.0823975	-0.0445557
-0.0875854	-0.0445557
-0.0772095	-0.0442505
-0.0567627	-0.0442505
0.00579834	-0.0448608
0.0488281	-0.0457764
0.0775146	-0.0463867
0.0839233	-0.0473022
0.0662231	-0.0479126
0.0524902	-0.0479126
0.0201416	-0.0479126
-0.0125122	-0.0476074
-0.0564575	-0.0476074
-0.071106	-0.0479126
-0.0402832	-0.0479126
-0.0350952	-0.0476074
-0.0201416	-0.0476074
-0.0115967	-0.0473022
0.00640869	-0.0473022
0.0421143	-0.0469971
0.0552368	-0.0469971
0.0595093	-0.0463867
0.0158691	-0.0460815
-0.0286865	-0.0457764
-0.0393677	-0.0454712
-0.0427246	-0.0457764
-0.0201416	-0.0463867
-0.0131226	-0.0469971
-0.0152588	-0.0473022
-0.0180054	-0.0476074
-0.0299072	-0.0479126
-0.027771	-0.0485229
-0.0396729	-0.0491333
-0.0250244	-0.0494385
0.0357056	-0.0491333
0.0830078	-0.0488281
0.0979614	-0.0488281
0.0958252	-0.0485229
0.0744629	-0.0482178
0.0317383	-0.0479126
-0.0170898	-0.0479126
-0.0708008	-0.0482178
-0.114441	-0.0482178
-0.111389	-0.0479126
-0.0799561	-0.0479126
-0.0463867	-0.0479126
-0.00640869	-0.0476074
0.032959	-0.0473022
0.0714111	-0.0473022
0.103455	-0.0479126
0.120544	-0.0485229
0.119629	-0.0491333
0.0717163	-0.0494385
0.0140381	-0.0491333
-0.0180054	-0.0485229
-0.050354	-0.0476074
-0.09552	-0.0469971
-0.144043	-0.0457764
-0.152283	-0.0442505
-0.119629	-0.0421143
-0.065918	-0.039978
-0.0128174	-0.0378418
0.0302124	-0.0350952
0.072937	-0.0311279
0.111694	-0.0259399
0.119019	-0.0198364
0.0927734	-0.0128174
0.0527954	-0.00518799
0.0231934	0.00335693
0.00518799	0.0128174
-0.00946045	0.0222778
-0.0335693	0.0314331
-0.0442505	0.0402832
-0.0418091	0.0479126
-0.0204468	0.0543213
0.0177002	0.0588989
0.0106812	0.0616455
-0.038147	0.0637817
-0.0741577	0.065918
-0.0720215	0.0683594
-0.0488281	0.0714111
-0.0137329	0.0750732
0.00549316	0.0790405
0.0256348	0.0827026
0.0714111	0.0866699
0.0958252	0.0900269
0.0857544	0.0918579
0.0619507	0.0921631
0.0390625	0.0909424
0.0369263	0.0872803
0.0247192	0.0814819
-0.00732422	0.0735474
-0.0604248	0.0643921
-0.111084	0.0543213
-0.119934	0.0439453
-0.118713	0.0341797
-0.108948	0.0247192
-0.0778198	0.0158691
-0.0393677	0.00762939
0.0170898	0
0.0930786	-0.00732422
0.137634	-0.0146484
0.124817	-0.0213623
0.0939941	-0.0280762
0.0668335	-0.0354004
0.0436401	-0.0430298
0.038147	-0.0497437
0.015564	-0.0552368
-0.0253296	-0.0601196
-0.0582886	-0.0646973
-0.083313	-0.067749
-0.0881958	-0.0695801
-0.0927734	-0.0698853
-0.0805664	-0.0692749
-0.0259399	-0.0683594
0.0314331	-0.0668335
0.0601196	-0.0656128
0.0540161	-0.0643921
0.0479126	-0.0634766
0.0402832	-0.0628662
0.039978	-0.0634766
0.0482178	-0.0650024
0.0250244	-0.0662231
0.00946045	-0.067749
-0.00762939	-0.0692749
-0.0430298	-0.071106
-0.0692749	-0.0726318
-0.0930786	-0.0741577
-0.0830078	-0.0753784
-0.0341797	-0.0765991
0.0140381	-0.0769043
0.0405884	-0.0762939
0.0335693	-0.0750732
0.0234985	-0.0735474
0.020752	-0.0720215
0.0161743	-0.0708008
0.00396729	-0.0695801
-0.0189209	-0.0686646
-0.0231934	-0.067749
0.00274658	-0.0674438
0.0265503	-0.067749
0.0350952	-0.0689697
0.0326538	-0.0701904
0.0305176	-0.0717163
0.0326538	-0.072937
0.0296021	-0.0741577
0.0158691	-0.0753784
-0.0170898	-0.0759888
-0.0271606	-0.0762939
-0.027771	-0.0759888
-0.0518799	-0.0753784
-0.0790405	-0.0747681
-0.093689	-0.0735474
-0.0827026	-0.0717163
-0.0460815	-0.0698853
-0.00579834	-0.0686646
0.0384521	-0.067749
0.0613403	-0.0671387
0.0811768	-0.065918
0.101624	-0.0646973
0.105286	-0.0634766
0.0915527	-0.0628662
0.0588989	-0.0628662
0.0250244	-0.0628662
0.0167847	-0.0628662
-0.00732422	-0.0628662
-0.0558472	-0.0628662
-0.108643	-0.0631714
-0.150146	-0.0637817
-0.157166	-0.0640869
-0.131836	-0.0640869
-0.0866699	-0.0640869
-0.0262451	-0.0634766
0.0366211	-0.0634766
0.0900269	-0.062561
0.118408	-0.0613403
0.121155	-0.0595093
0.103149	-0.055542
0.0817871	-0.0485229
0.0714111	-0.0372314
0.0518799	-0.0219727
0.0250244	-0.00396729
0.000915527	0.0170898
-0.0323486	0.0418091
-0.0576782	0.0701904
-0.0897217	0.101624
-0.151062	0.134888
-0.184937	0.168457
-0.154419	0.201721
-0.0482178	0.237122
0.0656128	0.273438
0.125427	0.308228
0.145264	0.335083
0.147705	0.3479
0.144958	0.346069
0.119324	0.328674
0.057373	0.294495
-0.0216675	0.242615
-0.0952148	0.174255
-0.127869	0.0942993
-0.122986	0.0100708
-0.123291	-0.071106
-0.123901	-0.142212
-0.0979614	-0.197144
-0.0317383	-0.231018
0.0537109	-0.242615
0.112915	-0.232849
0.136108	-0.205688
0.131531	-0.166931
0.109253	-0.12146
0.0552368	-0.0756836
-0.0311279	-0.0354004
-0.0897217	-0.00427246
-0.11322	0.0158691
-0.109253	0.0256348
-0.071106	0.0271606
-0.0262451	0.022583
0.0112915	0.0146484
0.0500488	0.00549316
0.0924683	-0.00305176
0.131226	-0.0100708
0.143127	-0.0143433
0.107727	-0.0161743
0.0308228	-0.0161743
-0.0463867	-0.0146484
-0.112305	-0.0128174
-0.160828	-0.0106812
-0.175476	-0.00823975
-0.163574	-0.00640869
-0.13031	-0.00549316
-0.0784302	-0.00488281
-0.0180054	-0.00427246
0.0469971	-0.00366211
0.111084	-0.00274658
0.176086	-0.00152588
0.23407	-0.000915527
0.248413	-0.000305176
0.196533	0.000610352
0.107727	0.00152588
0.0183105	0.00274658
-0.0701904	0.00335693
-0.142517	0.00396729
-0.206909	0.00457764
-0.25116	0.00488281
-0.233459	0.00549316
-0.184631	0.00610352
-0.125122	0.00671387
-0.0354004	0.00762939
0.0653076	0.0088501
0.15686	0.0100708
0.222473	0.0115967
0.219116	0.0131226
0.151062	0.0146484
0.0769043	0.0161743
0.0234985	0.0177002
-0.0238037	0.0186157
-0.0671387	0.0192261
-0.101318	0.0195313
-0.0997925	0.0204468
-0.0704956	0.0213623
-0.0387573	0.022583
0.0115967	0.0234985
0.0564575	0.0247192
0.0720215	0.0256348
0.100098	0.0268555
0.0744629	0.0283813
0.00701904	0.0296021
-0.0305176	0.0308228
-0.0738525	0.0323486
-0.117188	0.0338745
-0.121155	0.0350952
-0.117798	0.0363159
-0.0933838	0.0372314
-0.0286865	0.0384521
0.0424194	0.0402832
0.0918579	0.0421143
0.101318	0.0442505
0.0787354	0.0463867
0.0579834	0.0488281
0.0494385	0.0515747
0.0302124	0.0546265
0.000610352	0.0579834
-0.039978	0.06073
-0.057373	0.0634766
-0.0195313	0.0665283
0.012207	0.0698853
0.00915527	0.0732422
-0.00335693	0.0765991
-0.00976563	0.0799561
-0.0012207	0.0827026
0.0125122	0.0854492
0.0146484	0.0881958
0.00854492	0.0909424
0.00701904	0.0942993
0.0253296	0.0979614
0.039978	0.101318
0.0219727	0.104675
-0.0115967	0.108643
-0.0357056	0.11261
-0.043335	0.116577
-0.0500488	0.12085
-0.0546265	0.125427
-0.0549316	0.13031
-0.0408936	0.135193
0.0253296	0.140686
0.0494385	0.146179
-0.012207	0.151672
-0.0384521	0.157471
-0.0106812	0.162354
0.020752	0.166931
0.0387573	0.172119
0.00366211	0.177307
0.000305176	0.1828
0.0363159	0.187378
0.0628662	0.191345
0.0912476	0.195313
0.105896	0.199585
0.0808716	0.204468
0.032959	0.209961
0.00732422	0.214844
-0.0375366	0.219421
-0.119324	0.223694
-0.189819	0.228271
-0.22522	0.232849
-0.195007	0.236511
-0.11261	0.239258
-0.0115967	0.241394
0.088501	0.243835
0.17334	0.245972
0.221252	0.248108
0.227051	0.249329
0.18219	0.250244
0.0817871	0.25116
-0.0219727	0.252075
-0.085144	0.25238
-0.101624	0.25177
-0.0811768	0.250244
-0.0619507	0.247498
-0.0561523	0.243225
-0.0531006	0.237732
-0.0500488	0.230408
-0.0543213	0.221863
-0.0674438	0.212097
-0.0500488	0.201416
-0.012207	0.190125
0.0216675	0.178528
0.0582886	0.166626
0.0665283	0.155029
0.0689697	0.143127
0.0830078	0.13092
0.0704956	0.119324
0.0479126	0.107422
0.0244141	0.0958252
0.000915527	0.085144
0.00366211	0.0747681
0.00793457	0.0646973
-0.020752	0.0549316
-0.0646973	0.0457764
-0.0900269	0.0375366
-0.0872803	0.0302124
-0.0643921	0.0231934
-0.0457764	0.0161743
-0.0292969	0.00946045
0.0167847	0.00335693
0.0708008	-0.00213623
0.0799561	-0.00701904
0.0454712	-0.0125122
-0.000915527	-0.017395
-0.0335693	-0.022583
-0.0274658	-0.0265503
0.000915527	-0.0296021
0.00915527	-0.0320435
-0.0100708	-0.0344849
-0.0262451	-0.0363159
0.0109863	-0.0378418
0.00732422	-0.0384521
-0.0369263	-0.038147
-0.0473022	-0.0372314
-0.0167847	-0.0363159
0.146484	-0.0350952
0.315247	-0.0338745
0.369873	-0.0326538
0.311584	-0.0317383
0.108948	-0.0302124
-0.187378	-0.0286865
-0.455322	-0.0280762
-0.649719	-0.0280762
-0.693665	-0.0286865
-0.630798	-0.0296021
-0.426025	-0.0305176
-0.0204468	-0.0314331
0.450134	-0.0320435
0.813599	-0.0332642
0.97168	-0.0341797
0.892334	-0.03479
0.594788	-0.03479
0.164185	-0.0338745
-0.257263	-0.0326538
-0.551147	-0.0314331
-0.674133	-0.0308228
-0.63324	-0.0299072
-0.479431	-0.0286865
-0.263367	-0.0274658
-0.0238037	-0.0265503
0.189514	-0.0256348
0.33905	-0.0256348
0.381165	-0.0259399
0.296936	-0.0259399
0.167847	-0.0253296
0.0152588	-0.0241089
-0.143127	-0.0234985
-0.260925	-0.0228882
-0.309753	-0.0219727
-0.296021	-0.0204468
-0.118408	-0.0192261
0.180359	-0.0186157
0.293884	-0.0180054
0.108948	-0.0177002
0.548096	-0.0170898
0.732422	-0.0167847
-0.0973511	-0.0164795
-0.581665	-0.0167847
-0.710754	-0.0167847
-0.642395	-0.0170898
-0.257263	-0.0170898
0.135803	-0.0177002
0.336304	-0.0180054
0.42572	-0.0180054
0.430908	-0.0170898
0.362854	-0.0164795
0.259705	-0.0158691
0.0976563	-0.015564
-0.108948	-0.0146484
-0.274353	-0.0134277
-0.323486	-0.0131226
-0.322876	-0.0128174
-0.28656	-0.012207
-0.213318	-0.0119019
-0.106201	-0.012207
0.0219727	-0.0128174
0.122986	-0.0137329
0.196533	-0.0146484
0.231018	-0.0152588
0.244141	-0.0161743
0.230713	-0.0167847
0.177002	-0.0170898
0.0646973	-0.0167847
-0.0695801	-0.0164795
-0.17334	-0.0167847
-0.233459	-0.017395
-0.24231	-0.0180054
-0.198059	-0.0189209
-0.128479	-0.0204468
-0.0244141	-0.0222778
0.0619507	-0.0238037
0.125732	-0.0250244
0.162659	-0.0259399
0.142212	-0.0271606
0.112305	-0.0283813
0.0848389	-0.0296021
0.055542	-0.0302124
-0.000305176	-0.0302124
-0.0552368	-0.0296021
-0.0686646	-0.0296021
-0.078125	-0.0302124
-0.0726318	-0.0317383
-0.0695801	-0.0326538
-0.0762939	-0.0326538
-0.0546265	-0.0323486
-0.0195313	-0.0326538
0.020752	-0.0332642
0.0457764	-0.0335693
0.0454712	-0.0338745
0.0485229	-0.0341797
0.0561523	-0.0344849
0.0631714	-0.03479
0.0604248	-0.0354004
0.0244141	-0.0360107
-0.0323486	-0.0369263
-0.0750732	-0.0375366
-0.0817871	-0.0378418
-0.071106	-0.0384521
-0.0689697	-0.0393677
-0.0418091	-0.0405884
0.0128174	-0.0405884
0.0769043	-0.0402832
0.125427	-0.0402832
0.118713	-0.0405884
0.0772095	-0.0411987
0.0448608	-0.0411987
0.0158691	-0.0411987
-0.0405884	-0.0411987
-0.0906372	-0.0411987
-0.11261	-0.0411987
-0.100708	-0.0408936
-0.0628662	-0.0408936
-0.0262451	-0.0405884
-0.0134277	-0.0393677
-0.00183105	-0.0384521
0.03479	-0.0378418
0.0704956	-0.0378418
0.0900269	-0.0372314
0.0756836	-0.0363159
0.0439453	-0.0357056
0.0198364	-0.0357056
-0.00152588	-0.0366211
-0.0427246	-0.0372314
-0.0802612	-0.0378418
-0.093689	-0.038147
-0.0769043	-0.0390625
-0.045166	-0.0396729
-0.0189209	-0.0393677
0.00274658	-0.0393677
0.022583	-0.0384521
0.0683594	-0.0375366
0.0891113	-0.0369263
0.083313	-0.0366211
0.0698853	-0.0360107
0.0515747	-0.0360107
0.0210571	-0.0366211
0.00366211	-0.0369263
-0.0268555	-0.0369263
-0.0564575	-0.0372314
-0.071106	-0.0372314
-0.06073	-0.0372314
-0.0421143	-0.0366211
-0.0210571	-0.0357056
0.00152588	-0.0357056
-0.00335693	-0.0357056
-0.00610352	-0.0350952
-0.00305176	-0.0344849
-0.0112915	-0.0344849
-0.0186157	-0.0341797
-0.00244141	-0.0344849
0.0250244	-0.0350952
0.0732422	-0.0360107
0.0888062	-0.0360107
0.050354	-0.0350952
-0.00183105	-0.0335693
-0.0375366	-0.0320435
-0.0430298	-0.0296021
-0.0402832	-0.0259399
-0.0363159	-0.0216675
-0.0247192	-0.0164795
-0.0186157	-0.0100708
0.00579834	-0.00274658
0.0186157	0.00610352
0.0100708	0.0152588
0.00976563	0.0250244
0.000610352	0.0344849
-0.00915527	0.0430298
-0.0134277	0.050354
-0.0167847	0.0564575
-0.00823975	0.0610352
0.00915527	0.0646973
0.0393677	0.0674438
0.0683594	0.0689697
0.067749	0.0704956
0.0341797	0.0726318
-0.00305176	0.0756836
-0.0338745	0.0796509
-0.0637817	0.0848389
-0.0888062	0.090332
-0.0793457	0.0958252
-0.0473022	0.100098
-0.00152588	0.102234
0.0369263	0.102844
0.0549316	0.101318
0.0488281	0.0970459
0.043335	0.0900269
0.0387573	0.0814819
0.0149536	0.071106
-0.0201416	0.0598145
-0.0466919	0.0479126
-0.0610352	0.0366211
-0.0408936	0.0259399
0.0119019	0.0158691
0.0454712	0.00640869
0.0588989	-0.00244141
0.0485229	-0.0109863
0.0292969	-0.0186157
0.00671387	-0.0259399
-0.0393677	-0.0326538
-0.0656128	-0.0384521
-0.0634766	-0.0436401
-0.0485229	-0.0488281
-0.0231934	-0.0531006
-0.0180054	-0.0567627
-0.00793457	-0.0595093
0.0280762	-0.0616455
0.0756836	-0.0628662
0.0964355	-0.0640869
0.0799561	-0.0646973
0.0534058	-0.0653076
0.0219727	-0.065918
-0.0134277	-0.0662231
-0.0469971	-0.0662231
-0.0842285	-0.0662231
-0.0900269	-0.0656128
-0.0601196	-0.0656128
-0.0210571	-0.065918
-0.00183105	-0.0668335
-0.0125122	-0.067749
-0.017395	-0.0680542
0.0112915	-0.0683594
0.0378418	-0.0686646
0.0579834	-0.0695801
0.0723267	-0.0701904
0.0582886	-0.071106
0.0335693	-0.0714111
0.0177002	-0.0720215
-0.0109863	-0.0726318
-0.0665283	-0.0732422
-0.0991821	-0.0735474
-0.0912476	-0.0732422
-0.0674438	-0.0726318
-0.0375366	-0.0720215
-0.00976563	-0.0714111
0.00427246	-0.0701904
0.0418091	-0.0689697
0.0836182	-0.0674438
0.108948	-0.0662231
0.11322	-0.0650024
0.102234	-0.0643921
0.0860596	-0.0643921
0.0485229	-0.0640869
-0.0119019	-0.0643921
-0.0866699	-0.0650024
-0.153809	-0.065918
-0.188904	-0.0668335
-0.178528	-0.0665283
-0.137634	-0.0653076
-0.0698853	-0.0643921
0.0183105	-0.0640869
0.110779	-0.0634766
0.187378	-0.0619507
0.194702	-0.0604248
0.149536	-0.0588989
0.0839233	-0.0579834
0.0250244	-0.0576782
-0.00518799	-0.0582886
-0.0363159	-0.0588989
-0.0744629	-0.0595093
-0.0891113	-0.0598145
-0.0912476	-0.0601196
-0.0802612	-0.0598145
-0.0717163	-0.0582886
-0.0762939	-0.0537109
-0.0640869	-0.0454712
-0.0363159	-0.032959
0.0164795	-0.017395
0.055542	0.00183105
0.0738525	0.0244141
0.0927734	0.050354
0.0872803	0.0793457
0.0698853	0.110168
0.0506592	0.141602
0.0286865	0.17395
0.0280762	0.20813
0.0402832	0.243835
0.0543213	0.278015
0.0408936	0.305481
-0.0177002	0.32074
-0.0967407	0.323181
-0.176086	0.311584
-0.209045	0.284119
-0.185852	0.238342
-0.143738	0.175171
-0.0564575	0.0991821
0.0439453	0.0177002
0.133057	-0.0613403
0.19165	-0.131836
0.194702	-0.188599
0.167542	-0.22583
0.118103	-0.241699
0.0698853	-0.236511
0.0286865	-0.212708
-0.0152588	-0.175781
-0.0274658	-0.131836
-0.0375366	-0.0866699
-0.071106	-0.0454712
-0.13092	-0.012207
-0.205994	0.0106812
-0.233459	0.0231934
-0.195618	0.0268555
-0.109253	0.0241089
0.00549316	0.0170898
0.0973511	0.0088501
0.178528	0.0012207
0.260315	-0.00518799
0.287476	-0.00915527
0.245972	-0.0115967
0.141907	-0.0125122
0.0167847	-0.0125122
-0.0878906	-0.0128174
-0.170898	-0.0128174
-0.203857	-0.012207
-0.206604	-0.0115967
-0.193176	-0.0115967
-0.149231	-0.0115967
-0.0906372	-0.0109863
-0.0283813	-0.010376
0.0341797	-0.00915527
0.0946045	-0.00793457
0.172729	-0.00671387
0.229797	-0.00549316
0.242615	-0.00457764
0.209961	-0.00366211
0.13092	-0.00335693
0.0344849	-0.00274658
-0.0653076	-0.00244141
-0.149536	-0.00213623
-0.218201	-0.00152588
-0.260925	-0.000610352
-0.216064	0.000305176
-0.135498	0.0012207
-0.0790405	0.00183105
-0.0354004	0.00305176
0.0125122	0.00457764
0.0857544	0.00579834
0.159912	0.00610352
0.192566	0.00610352
0.183105	0.00701904
0.131531	0.00823975
0.0549316	0.0100708
-0.0253296	0.0115967
-0.101929	0.0128174
-0.152588	0.0137329
-0.14801	0.0146484
-0.0799561	0.0161743
0.00640869	0.017395
0.0671387	0.0186157
0.098877	0.0192261
0.0912476	0.0195313
0.0872803	0.0198364
0.0823975	0.0210571
0.0430298	0.022583
0.00335693	0.0241089
-0.0604248	0.0250244
-0.117798	0.0262451
-0.124512	0.0280762
-0.118713	0.0302124
-0.0994873	0.0320435
-0.0576782	0.0335693
0.0170898	0.0350952
0.0912476	0.0366211
0.115662	0.038147
0.101624	0.0393677
0.0643921	0.0408936
0.0234985	0.043335
0.00396729	0.0460815
-0.0158691	0.0491333
-0.0537109	0.0518799
-0.0949097	0.0546265
-0.102844	0.0576782
-0.0683594	0.0613403
-0.0268555	0.0646973
0.0228882	0.067749
0.0686646	0.0708008
0.106506	0.0744629
0.135803	0.0778198
0.119324	0.0802612
0.0732422	0.0820923
0.0204468	0.0839233
-0.0341797	0.0863647
-0.0689697	0.0897217
-0.100708	0.0933838
-0.133667	0.0970459
-0.125732	0.100708
-0.0872803	0.104065
-0.0299072	0.107117
0.0323486	0.111084
0.067749	0.115967
0.0708008	0.12146
0.071106	0.126953
0.0683594	0.132141
0.0482178	0.137024
0.00854492	0.141602
-0.0250244	0.147095
-0.0326538	0.152893
-0.0158691	0.159302
-0.00488281	0.165405
-0.0140381	0.170593
-0.0289917	0.175781
-0.0357056	0.180969
-0.0100708	0.185547
0.0149536	0.190125
0.00701904	0.194092
-0.00244141	0.198364
0.000305176	0.202637
0.00976563	0.205994
0.0244141	0.209656
0.0262451	0.213318
0.0195313	0.21698
0.00640869	0.220337
-0.0115967	0.223999
-0.0241089	0.227966
-0.0460815	0.231018
-0.0534058	0.233765
-0.0180054	0.235901
0.0341797	0.237427
0.0653076	0.238037
0.0531006	0.237427
0.017395	0.235901
-0.00946045	0.233459
-0.0216675	0.230103
-0.0241089	0.22583
-0.0305176	0.220032
-0.0305176	0.213318
-0.0106812	0.206604
0.0143433	0.198975
0.0354004	0.19104
0.0311279	0.181885
0.0164795	0.171814
0.0213623	0.161743
0.0210571	0.151367
-0.00213623	0.140076
-0.0317383	0.128174
-0.055542	0.115051
-0.0445557	0.101929
-0.0250244	0.0891113
-0.0170898	0.0765991
0.00640869	0.0643921
0.0192261	0.0524902
0.0308228	0.0415039
0.0323486	0.0317383
0.0134277	0.0234985
-0.00549316	0.0158691
-0.0296021	0.00823975
-0.0384521	0.000305176
-0.0128174	-0.00610352
0.0112915	-0.0109863
0.0140381	-0.015564
0.0183105	-0.0195313
0.0271606	-0.0238037
0.0335693	-0.0283813
0.0305176	-0.0326538
0.00915527	-0.0363159
-0.0213623	-0.0387573
-0.0299072	-0.0405884
-0.0314331	-0.0421143
-0.0527954	-0.0436401
-0.0674438	-0.0454712
-0.0970459	-0.0473022
-0.0900269	-0.0485229
-0.0234985	-0.0491333
0.0280762	-0.0500488
0.184326	-0.0506592
0.377502	-0.0512695
0.411682	-0.0515747
0.357971	-0.0518799
0.18158	-0.0518799
-0.128174	-0.0521851
-0.402222	-0.0521851
-0.603027	-0.0521851
-0.68512	-0.0518799
-0.600586	-0.0515747
-0.372314	-0.0515747
-0.0231934	-0.0521851
0.346069	-0.0531006
0.6073	-0.0537109
0.689697	-0.0537109
0.600586	-0.0531006
0.363159	-0.0534058
0.0549316	-0.0537109
-0.208435	-0.0531006
-0.376282	-0.0515747
-0.429993	-0.0497437
-0.368652	-0.0485229
-0.235901	-0.0482178
-0.0601196	-0.0469971
0.122681	-0.0454712
0.259399	-0.0439453
0.329895	-0.0427246
0.322876	-0.0415039
0.242004	-0.0408936
0.0918579	-0.0402832
-0.0997925	-0.0393677
-0.26947	-0.0387573
-0.369568	-0.038147
-0.377502	-0.0372314
-0.293274	-0.0360107
-0.155334	-0.0350952
0.0149536	-0.0341797
0.180359	-0.0335693
0.300598	-0.0326538
0.335693	-0.0320435
0.285034	-0.0311279
0.196533	-0.0299072
0.0891113	-0.0289917
-0.0259399	-0.0283813
-0.137939	-0.027771
-0.233154	-0.0274658
-0.265198	-0.0274658
-0.230103	-0.027771
-0.145264	-0.027771
-0.0424194	-0.0274658
0.0543213	-0.0274658
0.127869	-0.0268555
0.175781	-0.0262451
0.188599	-0.0259399
0.163269	-0.0259399
0.109253	-0.0259399
0.0387573	-0.0262451
-0.0302124	-0.0265503
-0.0762939	-0.0268555
-0.0906372	-0.0280762
-0.0946045	-0.0289917
-0.0997925	-0.0299072
-0.104065	-0.0302124
-0.0939941	-0.0305176
-0.0744629	-0.0308228
-0.039978	-0.0311279
0.00732422	-0.0320435
0.0411987	-0.0326538
0.0759888	-0.0332642
0.101013	-0.0335693
0.093689	-0.0344849
0.0759888	-0.0350952
0.0668335	-0.0357056
0.0564575	-0.0363159
0.0372314	-0.0369263
0.00549316	-0.0372314
-0.0338745	-0.0375366
-0.0741577	-0.0378418
-0.0942993	-0.038147
-0.0991821	-0.0384521
-0.0985718	-0.0387573
-0.0848389	-0.0390625
-0.0485229	-0.0396729
0.0106812	-0.0408936
0.0576782	-0.0421143
0.0814819	-0.0427246
0.0915527	-0.043335
0.0881958	-0.0442505
0.0827026	-0.0448608
0.0598145	-0.045166
0.0164795	-0.0457764
-0.0289917	-0.0460815
-0.0540161	-0.0466919
-0.0561523	-0.0469971
-0.045166	-0.0469971
-0.0442505	-0.0466919
-0.0405884	-0.0466919
-0.0234985	-0.0463867
-0.000915527	-0.0463867
0.015564	-0.0460815
0.0299072	-0.0457764
0.0372314	-0.0457764
0.0292969	-0.0460815
0.0201416	-0.0473022
-0.00579834	-0.0482178
-0.0482178	-0.0485229
-0.0674438	-0.0485229
-0.0552368	-0.0482178
-0.0256348	-0.0476074
0.0149536	-0.0476074
0.043335	-0.0479126
0.0579834	-0.0488281
0.0723267	-0.0491333
0.0778198	-0.0497437
0.0601196	-0.050354
0.0119019	-0.0512695
-0.0454712	-0.0521851
-0.0585938	-0.0531006
-0.0497437	-0.0537109
-0.0552368	-0.0543213
-0.0622559	-0.0546265
-0.0527954	-0.0543213
-0.0195313	-0.0531006
0.0164795	-0.0518799
0.0320435	-0.0506592
0.020752	-0.0500488
-0.000610352	-0.0497437
-0.00488281	-0.0494385
0.0234985	-0.0491333
0.0531006	-0.0497437
0.0515747	-0.050354
0.0332642	-0.0506592
0.020752	-0.0509644
0.0152588	-0.0515747
0.0100708	-0.0518799
-0.00915527	-0.0515747
-0.039978	-0.0512695
-0.055542	-0.0506592
-0.0546265	-0.0494385
-0.0393677	-0.0476074
-0.0216675	-0.0454712
-0.0143433	-0.0439453
-0.00549316	-0.0430298
0.0088501	-0.0427246
0.022583	-0.0427246
0.0210571	-0.0427246
0.0164795	-0.0436401
0.0259399	-0.045166
0.0524902	-0.0469971
0.0668335	-0.0485229
0.0570679	-0.0494385
0.0170898	-0.0497437
-0.0311279	-0.0497437
-0.0549316	-0.0494385
-0.0778198	-0.0488281
-0.108948	-0.0476074
-0.107117	-0.0466919
-0.0643921	-0.0463867
0.0170898	-0.0460815
0.0726318	-0.0460815
0.0878906	-0.0463867
0.0863647	-0.0473022
0.0747681	-0.0482178
0.0665283	-0.0488281
0.050354	-0.0494385
0.0112915	-0.0494385
-0.0335693	-0.0488281
-0.0683594	-0.0482178
-0.0817871	-0.0473022
-0.0787354	-0.0466919
-0.0610352	-0.0463867
-0.0405884	-0.0454712
-0.00946045	-0.0445557
0.0326538	-0.043335
0.0549316	-0.0424194
0.0509644	-0.0421143
0.0476074	-0.0408936
0.0402832	-0.038147
0.0323486	-0.0341797
0.0265503	-0.0286865
-0.00274658	-0.0216675
-0.0314331	-0.0134277
-0.0415039	-0.00427246
-0.0402832	0.00549316
-0.03479	0.0158691
-0.0393677	0.0262451
-0.0534058	0.0357056
-0.0418091	0.0439453
-0.00183105	0.0509644
0.0262451	0.0558472
0.0396729	0.0585938
0.0561523	0.0598145
0.0650024	0.0610352
0.0750732	0.0631714
0.0552368	0.0662231
-0.00671387	0.0698853
-0.0585938	0.0735474
-0.0820923	0.0772095
-0.0750732	0.0814819
-0.0387573	0.0860596
-0.00366211	0.0894165
0.0216675	0.0912476
0.045166	0.0912476
0.0595093	0.0894165
0.0588989	0.0854492
0.0317383	0.0793457
-0.0164795	0.071106
-0.0549316	0.0616455
-0.0527954	0.0515747
-0.0338745	0.0421143
-0.0369263	0.032959
-0.039978	0.0238037
-0.0280762	0.0140381
-0.0012207	0.00457764
0.0311279	-0.00457764
0.0445557	-0.0137329
0.0387573	-0.0222778
0.0494385	-0.0299072
0.0695801	-0.0369263
0.0701904	-0.043335
0.0344849	-0.0494385
-0.0167847	-0.0552368
-0.050354	-0.0601196
-0.0662231	-0.0634766
-0.0848389	-0.065918
-0.101318	-0.0674438
-0.0912476	-0.0686646
-0.0457764	-0.0692749
0.0219727	-0.0698853
0.0854492	-0.0701904
0.108032	-0.0698853
0.0915527	-0.0689697
0.0610352	-0.0680542
0.0466919	-0.067749
0.0384521	-0.067749
0.020752	-0.0680542
-0.00427246	-0.0686646
-0.0143433	-0.0695801
-0.0262451	-0.0708008
-0.0540161	-0.0720215
-0.0888062	-0.0735474
-0.121155	-0.0750732
-0.117798	-0.0765991
-0.0830078	-0.0775146
-0.0390625	-0.078125
0.00457764	-0.0787354
0.0497437	-0.0790405
0.0817871	-0.0790405
0.10376	-0.0787354
0.110779	-0.078125
0.098877	-0.0772095
0.088501	-0.0762939
0.0588989	-0.0750732
0.0332642	-0.0738525
0.00762939	-0.072937
-0.0531006	-0.0723267
-0.124512	-0.0714111
-0.160522	-0.0698853
-0.150757	-0.0689697
-0.117493	-0.0683594
-0.0698853	-0.0680542
-0.0149536	-0.0671387
0.0561523	-0.0665283
0.119934	-0.0656128
0.148926	-0.0650024
0.137939	-0.0640869
0.0994873	-0.0631714
0.0515747	-0.062561
0.00549316	-0.062561
-0.0332642	-0.0628662
-0.0640869	-0.0634766
-0.0839233	-0.0640869
-0.0735474	-0.0643921
-0.0430298	-0.0650024
-0.0238037	-0.0650024
-0.0186157	-0.0646973
-0.00976563	-0.0628662
0.00335693	-0.0576782
0.00915527	-0.0485229
0.0192261	-0.0360107
0.0192261	-0.0195313
0.0109863	-0.000305176
0.0180054	0.0219727
0.0332642	0.0469971
0.043335	0.0750732
0.0238037	0.10498
-0.00823975	0.135803
-0.027771	0.168457
-0.0228882	0.203857
-0.0100708	0.239868
-0.015564	0.272217
-0.0268555	0.294189
-0.0274658	0.303955
-0.0244141	0.301514
-0.00183105	0.28595
0.0161743	0.254517
0.0119019	0.205078
0.0109863	0.140381
0.0189209	0.0656128
0.0265503	-0.0125122
0.0256348	-0.0863647
0.00579834	-0.149536
-0.0274658	-0.196533
-0.0534058	-0.223999
-0.0570679	-0.231934
-0.038147	-0.221558
-0.00732422	-0.195618
0.0405884	-0.158997
0.0939941	-0.116577
0.129089	-0.0750732
0.118408	-0.0390625
0.0469971	-0.012207
-0.0442505	0.00427246
-0.120544	0.0115967
-0.178833	0.0112915
-0.184021	0.00640869
-0.130615	-0.00183105
-0.0378418	-0.0112915
0.0866699	-0.0198364
0.191345	-0.0262451
0.229492	-0.0299072
0.214233	-0.0314331
0.159912	-0.0314331
0.0680542	-0.0305176
-0.0320435	-0.0283813
-0.135803	-0.0259399
-0.227356	-0.0234985
-0.263977	-0.0219727
-0.243225	-0.0210571
-0.185547	-0.0198364
-0.0985718	-0.0186157
-0.00915527	-0.0170898
0.0628662	-0.0161743
0.143127	-0.0152588
0.212097	-0.0140381
0.260315	-0.0128174
0.281677	-0.0112915
0.241089	-0.00946045
0.152893	-0.00701904
0.0424194	-0.00518799
-0.088501	-0.00427246
-0.19104	-0.00396729
-0.23468	-0.00396729
-0.242004	-0.00366211
-0.226746	-0.00366211
-0.200195	-0.00396729
-0.151978	-0.00457764
-0.0787354	-0.00518799
0.0411987	-0.00518799
0.175171	-0.00457764
0.235291	-0.00335693
0.22644	-0.00183105
0.186157	-0.000610352
0.11322	0.00152588
0.0186157	0.00366211
-0.0714111	0.00549316
-0.153198	0.00701904
-0.205688	0.00854492
-0.159607	0.0100708
-0.06073	0.0119019
0.0537109	0.0140381
0.157166	0.0158691
0.205078	0.0170898
0.196228	0.0180054
0.132141	0.0189209
0.0170898	0.0198364
-0.0949097	0.0204468
-0.158081	0.020752
-0.180664	0.0204468
-0.172119	0.0198364
-0.137939	0.0201416
-0.0970459	0.0213623
-0.0326538	0.0222778
0.0628662	0.0238037
0.137329	0.0259399
0.157166	0.0286865
0.132751	0.0314331
0.0979614	0.0338745
0.045166	0.0369263
-0.0183105	0.039978
-0.0814819	0.0427246
-0.125732	0.0448608
-0.117798	0.0463867
-0.0668335	0.0482178
-0.00152588	0.050354
0.0405884	0.0521851
0.0552368	0.0540161
0.0686646	0.0561523
0.0811768	0.0582886
0.0668335	0.0604248
0.0299072	0.062561
-0.000610352	0.0653076
-0.0149536	0.0683594
-0.0149536	0.0714111
-0.0131226	0.0744629
-0.0372314	0.0778198
-0.072937	0.0817871
-0.0668335	0.0860596
-0.0228882	0.0906372
0.0167847	0.0952148
0.0213623	0.100403
0.0128174	0.105591
0.0167847	0.110474
0.0268555	0.114746
0.0378418	0.117798
0.00671387	0.121155
-0.0479126	0.125427
-0.0674438	0.13031
-0.0485229	0.135498
-0.0228882	0.140076
-0.00427246	0.145264
-0.00549316	0.151367
0.00183105	0.158081
0.0360107	0.1651
0.0640869	0.171509
0.0588989	0.177307
0.0201416	0.18219
-0.0241089	0.186768
-0.0292969	0.190125
-0.00488281	0.193481
0.00762939	0.196533
0.0177002	0.199585
0.0256348	0.202637
0.0378418	0.205688
0.0299072	0.20874
-0.00701904	0.211792
-0.0366211	0.215454
-0.0500488	0.219421
-0.0427246	0.222778
-0.00640869	0.225525
0.0335693	0.227051
0.0299072	0.227966
0.00671387	0.228577
-0.00671387	0.228577
-0.0262451	0.227661
-0.0491333	0.22583
-0.0280762	0.223083
0.0112915	0.218811
0.0363159	0.213013
0.0497437	0.206299
0.039978	0.198975
0.00305176	0.190125
-0.0161743	0.180054
-0.0180054	0.169373
-0.0375366	0.158386
-0.0637817	0.1474
-0.0588989	0.136414
-0.0384521	0.125732
-0.0106812	0.114746
0.00457764	0.104065
0.0088501	0.093689
0.0161743	0.0836182
0.0296021	0.0732422
0.0628662	0.0631714
0.0924683	0.0531006
0.0906372	0.0439453
0.0570679	0.03479
0.0140381	0.0259399
-0.0158691	0.017395
-0.0344849	0.00946045
-0.0396729	0.00213623
-0.0640869	-0.00457764
-0.0970459	-0.0106812
-0.0817871	-0.0158691
-0.0439453	-0.020752
-0.0308228	-0.0250244
-0.0332642	-0.0292969
0.00457764	-0.0332642
0.0567627	-0.0369263
0.0799561	-0.0405884
0.105896	-0.0445557
0.0695801	-0.0479126
-0.00244141	-0.0506592
-0.0128174	-0.0524902
-0.0476074	-0.0546265
-0.00915527	-0.0561523
0.0909424	-0.0576782
0.137634	-0.0588989
0.15686	-0.0592041
0.123901	-0.0588989
0.0115967	-0.0582886
-0.137024	-0.0579834
-0.249023	-0.0576782
-0.329285	-0.0576782
-0.361023	-0.0567627
-0.300293	-0.055542
-0.186157	-0.0543213
0.000305176	-0.0531006
0.275574	-0.0524902
0.473328	-0.0515747
0.534363	-0.0506592
0.479736	-0.0497437
0.285339	-0.0491333
0.0158691	-0.0488281
-0.218201	-0.0488281
-0.420532	-0.0488281
-0.563965	-0.0482178
-0.547791	-0.0479126
-0.367737	-0.0469971
-0.0848389	-0.0463867
0.210571	-0.045166
0.409851	-0.0439453
0.482178	-0.0427246
0.487061	-0.0415039
0.411987	-0.039978
0.240479	-0.0390625
0.0177002	-0.0387573
-0.187683	-0.0387573
-0.330811	-0.0387573
-0.389709	-0.0384521
-0.389404	-0.0378418
-0.345459	-0.0375366
-0.242004	-0.0369263
-0.0909424	-0.0357056
0.0668335	-0.0341797
0.182495	-0.0323486
0.245667	-0.0308228
0.250854	-0.0296021
0.210876	-0.0280762
0.151367	-0.0259399
0.0561523	-0.0241089
-0.0430298	-0.0228882
-0.0952148	-0.0222778
-0.093689	-0.0228882
-0.0427246	-0.0234985
-0.00244141	-0.0238037
0.0115967	-0.0234985
0.0250244	-0.0234985
0.0372314	-0.0234985
0.0344849	-0.0234985
0.00488281	-0.0241089
-0.0244141	-0.0250244
-0.0283813	-0.0253296
-0.0344849	-0.0259399
-0.0564575	-0.0259399
-0.0845337	-0.0259399
-0.100708	-0.0262451
-0.0708008	-0.0265503
-0.00274658	-0.0274658
0.0622559	-0.0283813
0.0942993	-0.0289917
0.0921631	-0.0289917
0.0772095	-0.0289917
0.0765991	-0.0283813
0.0634766	-0.0280762
0.0228882	-0.0286865
-0.0234985	-0.0299072
-0.062561	-0.0314331
-0.0912476	-0.0332642
-0.10376	-0.03479
-0.098877	-0.0363159
-0.0827026	-0.0378418
-0.0396729	-0.0393677
0.0112915	-0.0408936
0.0588989	-0.0421143
0.0762939	-0.0430298
0.0723267	-0.0436401
0.088501	-0.0442505
0.0915527	-0.0445557
0.0552368	-0.0445557
0.0338745	-0.0445557
0.00427246	-0.0448608
-0.0595093	-0.045166
-0.0942993	-0.0454712
-0.100098	-0.0454712
-0.105896	-0.0448608
-0.0949097	-0.0442505
-0.0576782	-0.0439453
-0.00335693	-0.0439453
0.0442505	-0.0445557
0.0775146	-0.0457764
0.09552	-0.0460815
0.0942993	-0.0460815
0.0875854	-0.0466919
0.0744629	-0.0473022
0.0210571	-0.0482178
-0.0497437	-0.0485229
-0.0717163	-0.0488281
-0.0546265	-0.0488281
-0.0463867	-0.0485229
-0.0253296	-0.0476074
-0.00335693	-0.0469971
0.00305176	-0.0466919
0.0186157	-0.0466919
0.0216675	-0.0466919
-0.00152588	-0.0469971
-0.0189209	-0.0469971
-0.00701904	-0.0473022
0.00976563	-0.0482178
0.00701904	-0.0488281
-0.00732422	-0.0491333
-0.0363159	-0.0491333
-0.0439453	-0.0485229
-0.0204468	-0.0482178
0.0228882	-0.0488281
0.0640869	-0.0491333
0.0726318	-0.0491333
0.0665283	-0.0488281
0.0567627	-0.0485229
0.012207	-0.0482178
-0.0424194	-0.0482178
-0.0897217	-0.0482178
-0.123901	-0.0482178
-0.12146	-0.0479126
-0.0738525	-0.0469971
-0.0143433	-0.0460815
0.0280762	-0.045166
0.0549316	-0.0448608
0.0750732	-0.0442505
0.0912476	-0.0442505
0.0839233	-0.0445557
0.0695801	-0.0454712
0.0448608	-0.0463867
0.017395	-0.0469971
0.0112915	-0.0473022
-0.0088501	-0.0479126
-0.0592041	-0.0488281
-0.105591	-0.0497437
-0.108948	-0.0497437
-0.0775146	-0.0491333
-0.0543213	-0.0479126
-0.0305176	-0.0466919
0.0140381	-0.0457764
0.0637817	-0.045166
0.106506	-0.0448608
0.113525	-0.0445557
0.0790405	-0.0445557
0.0268555	-0.0445557
-0.022583	-0.0442505
-0.0476074	-0.0442505
-0.0695801	-0.0439453
-0.0765991	-0.043335
-0.0460815	-0.0427246
-0.0012207	-0.0424194
0.0283813	-0.0424194
0.0250244	-0.0421143
0.000915527	-0.0415039
-0.00610352	-0.0402832
0.0180054	-0.0396729
0.0378418	-0.0393677
0.0341797	-0.0396729
0.00946045	-0.0396729
-0.00213623	-0.0390625
0.0119019	-0.0378418
0.0216675	-0.0363159
0.00183105	-0.0341797
-0.0402832	-0.0311279
-0.0668335	-0.027771
-0.0772095	-0.0231934
-0.0708008	-0.017395
-0.0485229	-0.0100708
-0.0259399	-0.00152588
0.0183105	0.00762939
0.0720215	0.0158691
0.101929	0.0241089
0.108948	0.0323486
0.0772095	0.0396729
0.0219727	0.0457764
-0.00366211	0.0509644
-0.0268555	0.0549316
-0.0558472	0.0582886
-0.072937	0.0619507
-0.0708008	0.0668335
-0.0552368	0.0726318
-0.0360107	0.0787354
-0.0119019	0.0842285
0.0119019	0.0894165
0.0390625	0.0949097
0.0704956	0.0997925
0.0915527	0.102844
0.0793457	0.104065
0.0338745	0.103455
-0.00640869	0.100708
-0.0256348	0.0958252
-0.0570679	0.0897217
-0.0744629	0.0817871
-0.067749	0.0735474
-0.0552368	0.0646973
-0.0183105	0.0558472
0.0299072	0.0469971
0.0469971	0.0375366
0.0360107	0.0274658
0.0137329	0.017395
0.00915527	0.00732422
0.0247192	-0.00213623
0.0143433	-0.0112915
-0.0088501	-0.0195313
-0.0250244	-0.0265503
-0.0286865	-0.0323486
-0.0195313	-0.0375366
-0.0231934	-0.0421143
-0.0305176	-0.0457764
-0.0146484	-0.0485229
0.0167847	-0.050354
0.0436401	-0.0518799
0.0427246	-0.0527954
0.0250244	-0.0537109
0.0183105	-0.0546265
0.0131226	-0.055542
0.00488281	-0.0564575
-0.0161743	-0.057373
-0.0344849	-0.0585938
-0.0354004	-0.0598145
-0.0146484	-0.06073
0.0219727	-0.0616455
0.0384521	-0.0628662
0.0354004	-0.0637817
0.0283813	-0.0643921
0.00946045	-0.0646973
-0.0143433	-0.0646973
-0.0372314	-0.0646973
-0.0653076	-0.0643921
-0.0741577	-0.0637817
-0.0442505	-0.0637817
0.000610352	-0.0637817
0.0314331	-0.0637817
0.0460815	-0.0631714
0.0549316	-0.0622559
0.0445557	-0.0616455
0.0222778	-0.0616455
-0.00823975	-0.0619507
-0.0354004	-0.0622559
-0.0415039	-0.0619507
-0.0305176	-0.0616455
-0.010376	-0.0613403
-0.0012207	-0.0613403
-0.00640869	-0.0613403
-0.00823975	-0.0613403
0.0112915	-0.0610352
0.0372314	-0.0604248
0.0405884	-0.0598145
0.0268555	-0.0592041
0.0149536	-0.0588989
0.00640869	-0.0582886
-0.0106812	-0.057373
-0.0286865	-0.0570679
-0.0473022	-0.0570679
-0.0500488	-0.0576782
-0.0192261	-0.0588989
0.0167847	-0.0592041
0.0274658	-0.0576782
0.0241089	-0.0534058
0.0262451	-0.0463867
0.0332642	-0.0363159
0.039978	-0.0228882
0.022583	-0.00610352
0.0012207	0.0131226
-0.00305176	0.0350952
-0.0164795	0.0595093
-0.0469971	0.0860596
-0.0720215	0.114441
-0.0820923	0.146484
-0.0540161	0.183105
-0.00213623	0.221558
0.043335	0.256042
0.067749	0.280762
0.0704956	0.293579
0.0622559	0.294495
0.0415039	0.283203
0.017395	0.257263
-0.0311279	0.214233
-0.0814819	0.15564
-0.098877	0.0863647
-0.0875854	0.0128174
-0.0354004	-0.0576782
0.00671387	-0.117798
0.0128174	-0.162354
0.0424194	-0.188904
0.0778198	-0.197144
0.0762939	-0.189209
0.0485229	-0.167542
-0.00335693	-0.137024
-0.0161743	-0.101624
-0.00823975	-0.0665283
-0.00427246	-0.0357056
0.0137329	-0.0119019
0.0222778	0.00335693
0.0177002	0.0106812
0.020752	0.0115967
-0.0268555	0.00793457
-0.136719	0.00183105
-0.14679	-0.00488281
-0.0323486	-0.010376
0.103455	-0.0143433
0.185852	-0.0164795
0.173645	-0.0164795
0.0576782	-0.0152588
-0.0521851	-0.0131226
-0.0241089	-0.0106812
0.122375	-0.00823975
-0.249023	-0.00610352
-0.520325	-0.00457764
-0.30426	-0.00427246
0.0524902	-0.00427246
0.292053	-0.00457764
0.306091	-0.00518799
0.13092	-0.00610352
-0.0558472	-0.00671387
-0.112305	-0.00732422
-0.0234985	-0.00762939
0.108337	-0.00762939
0.168457	-0.00732422
0.140076	-0.00640869
0.0814819	-0.00488281
0.0262451	-0.00305176
-0.0357056	-0.00152588
-0.0952148	-0.000610352
-0.134277	0
-0.159912	0.00152588
-0.133057	0.00335693
-0.0842285	0.00488281
-0.0701904	0.00610352
-0.0146484	0.00701904
0.0628662	0.00793457
0.106506	0.00854492
0.119629	0.00946045
0.0909424	0.010376
0.0537109	0.0109863
0.0283813	0.0125122
0.00366211	0.0140381
-0.027771	0.0152588
-0.0845337	0.0158691
-0.124817	0.0170898
-0.107422	0.0186157
-0.0604248	0.0198364
0.00244141	0.0213623
0.062561	0.0231934
0.107117	0.0253296
0.151062	0.0268555
0.163269	0.0271606
0.13031	0.0274658
0.0442505	0.027771
-0.0631714	0.0283813
-0.139465	0.0289917
-0.168762	0.0302124
-0.1651	0.0317383
-0.140991	0.0338745
-0.0802612	0.0360107
0.0112915	0.0384521
0.102844	0.0411987
0.158691	0.0436401
0.152893	0.0466919
0.116577	0.0497437
0.0845337	0.0521851
0.0311279	0.0543213
-0.0515747	0.0558472
-0.127563	0.057373
-0.169373	0.0592041
-0.153198	0.0613403
-0.0872803	0.0637817
-0.0253296	0.0662231
0.0216675	0.0689697
0.0747681	0.0720215
0.122375	0.0747681
0.136719	0.0772095
0.115967	0.0802612
0.0552368	0.083313
0.00366211	0.0863647
-0.0332642	0.0897217
-0.06073	0.0933838
-0.0534058	0.0967407
-0.0469971	0.100098
-0.045166	0.104065
-0.0289917	0.108337
-0.0238037	0.11261
-0.0231934	0.116882
-0.0231934	0.12146
-0.0265503	0.125732
-0.00793457	0.13031
0.0106812	0.134277
0.0244141	0.138855
0.0302124	0.144043
0.0326538	0.148926
0.0442505	0.153503
0.050354	0.158081
0.0250244	0.162354
-0.0238037	0.166931
-0.0579834	0.171509
-0.0476074	0.176392
-0.00183105	0.18158
0.0311279	0.186768
0.0369263	0.191956
0.039978	0.197144
0.0524902	0.201721
0.0363159	0.205688
0.000305176	0.209351
-0.0463867	0.212402
-0.0836182	0.215149
-0.0622559	0.21759
-0.0244141	0.220032
-0.00305176	0.222778
0.0158691	0.22583
0.0228882	0.229187
0.00518799	0.231934
-0.0158691	0.234375
-0.0177002	0.236511
-0.0286865	0.238342
-0.0253296	0.238953
0.0131226	0.238342
0.0360107	0.235901
0.043335	0.231628
0.0411987	0.22583
0.0363159	0.218506
0.0460815	0.210571
0.0350952	0.202637
-0.00854492	0.194397
-0.0320435	0.185852
-0.0305176	0.176392
-0.0250244	0.167236
-0.0216675	0.158081
-0.0402832	0.148621
-0.055542	0.139465
-0.0457764	0.1297
-0.0152588	0.119324
0.0192261	0.108032
0.0457764	0.0964355
0.0460815	0.0845337
0.0238037	0.0735474
0.0189209	0.0628662
0.0167847	0.0521851
0.000610352	0.0427246
-0.0170898	0.0335693
-0.0411987	0.0256348
-0.0543213	0.0186157
-0.0592041	0.0128174
-0.050354	0.00762939
-0.0180054	0.00305176
0.0262451	-0.000610352
0.0695801	-0.00427246
0.0814819	-0.00823975
0.0686646	-0.0131226
0.0411987	-0.0180054
0.0128174	-0.0228882
0.00549316	-0.0271606
-0.00793457	-0.0308228
-0.0497437	-0.0341797
-0.122375	-0.0369263
-0.0790405	-0.0396729
0.0286865	-0.0421143
0.142212	-0.043335
0.177307	-0.0439453
0.150146	-0.0439453
0.0613403	-0.0430298
-0.0289917	-0.0424194
-0.12085	-0.0418091
-0.228577	-0.0415039
-0.278625	-0.0415039
-0.271912	-0.0418091
-0.166931	-0.0418091
0.0378418	-0.0421143
0.230408	-0.0424194
0.34729	-0.0424194
0.357971	-0.0418091
0.245361	-0.0415039
0.0326538	-0.0408936
-0.220947	-0.039978
-0.408936	-0.0393677
-0.429688	-0.0390625
-0.289307	-0.0387573
-0.0411987	-0.0375366
0.249634	-0.0357056
0.480347	-0.0338745
0.572205	-0.032959
0.514832	-0.0320435
0.292969	-0.0305176
-0.0579834	-0.0286865
-0.411682	-0.0265503
-0.631714	-0.0238037
-0.636902	-0.0210571
-0.487976	-0.0186157
-0.258484	-0.0164795
-0.0216675	-0.0146484
0.179138	-0.0137329
0.336609	-0.0134277
0.416565	-0.0134277
0.418701	-0.0140381
0.333557	-0.0143433
0.193787	-0.0146484
0.057373	-0.0149536
-0.0695801	-0.0161743
-0.175476	-0.0170898
-0.240173	-0.0177002
-0.263977	-0.0177002
-0.215454	-0.0170898
-0.118408	-0.015564
-0.0360107	-0.0143433
0.0231934	-0.0137329
0.0830078	-0.0134277
0.131531	-0.0125122
0.154114	-0.0115967
0.134583	-0.0106812
0.0680542	-0.0100708
-0.00335693	-0.0100708
-0.0372314	-0.010376
-0.0436401	-0.010376
-0.055542	-0.0100708
-0.065918	-0.00946045
-0.0613403	-0.00946045
-0.0424194	-0.00976563
-0.0119019	-0.0109863
0.010376	-0.0128174
0.00762939	-0.0152588
0.00549316	-0.0177002
0.0210571	-0.0198364
0.0445557	-0.0216675
0.0491333	-0.0241089
0.0296021	-0.0268555
0.00946045	-0.0289917
0.00244141	-0.0305176
-0.00335693	-0.0311279
-0.0186157	-0.0314331
-0.0454712	-0.0308228
-0.0579834	-0.0299072
-0.0418091	-0.0292969
-0.0192261	-0.0292969
-0.000305176	-0.0296021
0.0088501	-0.0296021
0.0088501	-0.0302124
0.0192261	-0.0308228
0.0332642	-0.0314331
0.0357056	-0.0320435
0.0244141	-0.0326538
0.0106812	-0.0335693
-0.00335693	-0.03479
-0.00305176	-0.0357056
0.00213623	-0.0366211
-0.00976563	-0.0372314
-0.00915527	-0.038147
0.00610352	-0.0393677
0.00671387	-0.0408936
-0.00396729	-0.0415039
-0.027771	-0.0421143
-0.0524902	-0.0427246
-0.039978	-0.0436401
-0.0146484	-0.0439453
-0.00671387	-0.043335
-0.0012207	-0.0424194
0.00305176	-0.0418091
0.022583	-0.0418091
0.055542	-0.0415039
0.0704956	-0.0415039
0.0521851	-0.0415039
0.0289917	-0.0424194
0.0192261	-0.0439453
0.00335693	-0.0454712
-0.0314331	-0.0469971
-0.0640869	-0.0479126
-0.0769043	-0.0482178
-0.0585938	-0.0485229
-0.0119019	-0.0491333
0.00976563	-0.0488281
0.00335693	-0.0476074
0.00823975	-0.0454712
0.0289917	-0.0436401
0.038147	-0.0430298
0.0390625	-0.0427246
0.0189209	-0.0424194
-0.0109863	-0.0424194
-0.00976563	-0.0427246
0.0112915	-0.0430298
0.0131226	-0.0430298
-0.0158691	-0.0427246
-0.0488281	-0.0427246
-0.0424194	-0.0427246
-0.00793457	-0.0427246
0.0109863	-0.0424194
0.0119019	-0.0415039
0.000610352	-0.0408936
-0.0088501	-0.0405884
-0.00640869	-0.0411987
-0.0180054	-0.0421143
-0.0302124	-0.0430298
-0.0161743	-0.0436401
0.017395	-0.0439453
0.0534058	-0.0439453
0.0683594	-0.043335
0.0445557	-0.0427246
0.0296021	-0.0418091
0.0280762	-0.0396729
-0.0259399	-0.0369263
-0.06073	-0.032959
-0.0357056	-0.027771
-0.00732422	-0.020752
-0.0219727	-0.0131226
-0.0100708	-0.00549316
0.0170898	0.00213623
-0.00366211	0.00976563
-0.0146484	0.0180054
0.00274658	0.0259399
0.0125122	0.0332642
0.0201416	0.0393677
0.00732422	0.0448608
-0.0167847	0.0494385
-0.0219727	0.0540161
-0.0131226	0.0588989
-0.00396729	0.0640869
-0.0152588	0.0692749
-0.0338745	0.0741577
-0.0167847	0.0787354
0.00854492	0.0836182
0.020752	0.0881958
0.0314331	0.0918579
0.0299072	0.0946045
0.039978	0.09552
0.0506592	0.0946045
0.0314331	0.0918579
0.0012207	0.0869751
-0.0280762	0.0799561
-0.0268555	0.0714111
0.000915527	0.0619507
0.0106812	0.0518799
-0.0213623	0.0411987
-0.0588989	0.0296021
-0.0650024	0.0180054
-0.067749	0.00671387
-0.0689697	-0.00366211
-0.0497437	-0.0134277
-0.0125122	-0.0216675
0.0317383	-0.0289917
0.0891113	-0.0363159
0.129089	-0.043335
0.113525	-0.0491333
0.0683594	-0.0546265
0.0323486	-0.0595093
0.00640869	-0.0628662
-0.0213623	-0.0653076
-0.0402832	-0.0671387
-0.0512695	-0.0680542
-0.0628662	-0.0683594
-0.0518799	-0.0686646
-0.0445557	-0.0695801
-0.0537109	-0.0704956
-0.0323486	-0.0704956
0.00976563	-0.0695801
0.0540161	-0.0683594
0.0845337	-0.0674438
0.0436401	-0.0665283
-0.0146484	-0.0656128
-0.032959	-0.0650024
-0.0308228	-0.0653076
-0.0204468	-0.0656128
-0.0109863	-0.0656128
0.00335693	-0.0662231
0.0265503	-0.0671387
0.0439453	-0.0689697
0.0531006	-0.0714111
0.0271606	-0.0735474
-0.0198364	-0.0747681
-0.0445557	-0.0753784
-0.0445557	-0.0750732
-0.0375366	-0.0747681
-0.0320435	-0.0738525
-0.022583	-0.072937
0.0216675	-0.0717163
0.0619507	-0.0695801
0.071106	-0.0674438
0.0543213	-0.0653076
0.010376	-0.0640869
-0.0289917	-0.0631714
-0.0396729	-0.0628662
-0.0448608	-0.062561
-0.0411987	-0.0622559
-0.0222778	-0.062561
-0.00335693	-0.0631714
0.0152588	-0.0634766
0.0210571	-0.0637817
0.00671387	-0.0646973
-0.0143433	-0.065918
-0.0222778	-0.0674438
-0.00610352	-0.0692749
0.0125122	-0.0704956
0.0265503	-0.0692749
0.0296021	-0.0646973
0.0256348	-0.0570679
0.0247192	-0.0473022
-0.00732422	-0.0350952
-0.0424194	-0.020752
-0.0482178	-0.00427246
-0.0302124	0.0146484
0.000610352	0.0366211
0.0180054	0.06073
0.0210571	0.0878906
0.0302124	0.119019
0.038147	0.15564
0.032959	0.193787
0.00946045	0.227356
-0.0302124	0.252075
-0.0567627	0.266113
-0.0567627	0.268555
-0.0424194	0.259094
-0.0357056	0.234375
-0.0268555	0.192566
0.010376	0.135498
0.050354	0.0674438
0.078125	-0.00549316
0.0839233	-0.0744629
0.0579834	-0.131836
0.0265503	-0.172729
0.00213623	-0.195923
-0.0143433	-0.202026
-0.0320435	-0.192871
-0.0610352	-0.171509
-0.0708008	-0.140991
-0.0500488	-0.106201
-0.015564	-0.0717163
0.027771	-0.0408936
0.0524902	-0.017395
0.0524902	-0.00183105
0.0424194	0.00579834
0.012207	0.00762939
-0.0537109	0.00488281
-0.127869	-0.000610352
-0.140686	-0.00701904
-0.0689697	-0.0125122
0.0473022	-0.0167847
0.144653	-0.0198364
0.158691	-0.0213623
0.123291	-0.0216675
0.0939941	-0.020752
0.0469971	-0.0198364
-0.022583	-0.0183105
-0.0997925	-0.0167847
-0.144348	-0.0149536
-0.137329	-0.0140381
-0.127258	-0.0143433
-0.129395	-0.0149536
-0.122375	-0.0158691
-0.0909424	-0.0170898
-0.00335693	-0.017395
0.118103	-0.0167847
0.20752	-0.0158691
0.248718	-0.0149536
0.242615	-0.0125122
0.171204	-0.00946045
0.0915527	-0.00671387
0.0146484	-0.00427246
-0.0830078	-0.00244141
-0.136414	-0.000915527
-0.150146	0.000610352
-0.160828	0.00183105
-0.13916	0.00244141
-0.0967407	0.00274658
-0.0585938	0.00274658
-0.0158691	0.00274658
0.0216675	0.00305176
0.0396729	0.00396729
0.0494385	0.00610352
0.0543213	0.00793457
0.0650024	0.0100708
0.0949097	0.0131226
0.0473022	0.0167847
-0.0253296	0.0204468
-0.0582886	0.022583
-0.0518799	0.0234985
-0.0262451	0.0241089
0.0125122	0.0250244
0.0390625	0.0256348
0.0332642	0.0256348
0.0289917	0.0250244
0.0411987	0.0234985
0.0466919	0.022583
0.0296021	0.0222778
0.00335693	0.0231934
-0.0222778	0.0253296
-0.0411987	0.0274658
-0.0509644	0.0299072
-0.0747681	0.0326538
-0.090332	0.0354004
-0.0668335	0.038147
-0.0253296	0.0405884
0.0265503	0.0427246
0.0637817	0.0442505
0.0753784	0.045166
0.0732422	0.0469971
0.0610352	0.0494385
0.0289917	0.0515747
-0.015564	0.0537109
-0.0512695	0.0561523
-0.0753784	0.0585938
-0.0704956	0.0616455
-0.0372314	0.0650024
-0.00823975	0.0686646
0.0219727	0.0717163
0.0579834	0.0744629
0.0854492	0.0765991
0.0790405	0.0793457
0.0460815	0.0820923
0.00366211	0.0845337
-0.032959	0.0869751
-0.0668335	0.0900269
-0.090332	0.0930786
-0.0897217	0.0958252
-0.0686646	0.0991821
-0.0247192	0.103149
0.0314331	0.107727
0.0790405	0.11322
0.0878906	0.118713
0.078125	0.123901
0.0613403	0.129395
0.0311279	0.134583
-0.00762939	0.140076
-0.0466919	0.145569
-0.0775146	0.150146
-0.0775146	0.154419
-0.062561	0.158386
-0.0421143	0.162964
-0.0234985	0.167542
-0.000305176	0.172424
0.0421143	0.176697
0.0952148	0.180359
0.106812	0.183716
0.0521851	0.187073
-0.017395	0.19043
-0.0640869	0.194397
-0.0848389	0.198364
-0.0662231	0.201416
-0.0286865	0.203857
0.00671387	0.206604
0.0488281	0.209961
0.085144	0.213928
0.0799561	0.218201
0.0369263	0.222168
-0.0222778	0.22583
-0.0527954	0.228882
-0.0518799	0.231323
-0.0421143	0.232849
-0.0344849	0.233154
-0.0338745	0.232544
-0.00305176	0.231018
0.0546265	0.228271
0.0842285	0.223999
0.0726318	0.218506
0.0421143	0.212708
0.015564	0.206909
-0.00152588	0.200195
-0.0180054	0.192261
-0.0408936	0.183411
-0.0741577	0.175171
-0.0930786	0.167236
-0.0830078	0.158386
-0.0592041	0.148621
-0.0216675	0.137939
0.0238037	0.126648
0.0650024	0.115356
0.0808716	0.10376
0.0640869	0.0921631
0.0375366	0.0796509
0.0119019	0.0674438
-0.00335693	0.0561523
-0.00152588	0.0457764
-0.00610352	0.0369263
-0.0152588	0.0289917
-0.0344849	0.022583
-0.0500488	0.0161743
-0.0469971	0.010376
-0.0231934	0.00518799
0.00457764	0
0.0289917	-0.00518799
0.0378418	-0.0109863
0.0363159	-0.0167847
0.0292969	-0.0228882
0.0106812	-0.0286865
-0.00610352	-0.0335693
0.017395	-0.0375366
0.0561523	-0.0405884
-0.00549316	-0.0424194
-0.10498	-0.0436401
-0.135498	-0.0439453
-0.0564575	-0.0442505
0.0927734	-0.0436401
0.2005	-0.0424194
0.258484	-0.0411987
0.219116	-0.0402832
0.0567627	-0.0396729
-0.113831	-0.0396729
-0.254517	-0.0405884
-0.368042	-0.0411987
-0.384216	-0.0408936
-0.270691	-0.0402832
-0.0570679	-0.039978
0.173035	-0.039978
0.342712	-0.0396729
0.400696	-0.0390625
0.324402	-0.038147
0.119629	-0.0366211
-0.140076	-0.03479
-0.352783	-0.032959
-0.429688	-0.0308228
-0.339966	-0.0286865
-0.104065	-0.0265503
0.197449	-0.0244141
0.458069	-0.0231934
0.608826	-0.0228882
0.600586	-0.0231934
0.395813	-0.0234985
0.0134277	-0.0238037
-0.409546	-0.0244141
-0.694885	-0.0247192
-0.750122	-0.0244141
-0.59967	-0.0231934
-0.341797	-0.0216675
-0.0634766	-0.0198364
0.198975	-0.0180054
0.412292	-0.015564
0.513916	-0.0125122
0.500183	-0.00946045
0.401917	-0.00640869
0.227966	-0.00457764
0.0268555	-0.00335693
-0.150757	-0.00274658
-0.279236	-0.00274658
-0.352783	-0.00366211
-0.343628	-0.00488281
-0.247803	-0.00640869
-0.108948	-0.00823975
0.0231934	-0.00976563
0.130615	-0.0109863
0.198669	-0.0119019
0.22522	-0.0128174
0.21698	-0.0137329
0.176392	-0.0146484
0.111694	-0.015564
0.0289917	-0.0158691
-0.0567627	-0.0152588
-0.133057	-0.0140381
-0.189819	-0.0137329
-0.195618	-0.0143433
-0.149231	-0.0149536
-0.078125	-0.015564
-0.0146484	-0.015564
0.027771	-0.015564
0.0250244	-0.015564
0.0137329	-0.015564
0.0424194	-0.015564
0.104675	-0.0152588
0.151062	-0.0152588
0.148621	-0.015564
0.105896	-0.015564
0.0256348	-0.015564
-0.078125	-0.0158691
-0.171204	-0.0161743
-0.220337	-0.0167847
-0.190125	-0.0177002
-0.0967407	-0.0192261
0.0161743	-0.0210571
0.105896	-0.0231934
0.140381	-0.0250244
0.137329	-0.0271606
0.125427	-0.0289917
0.108643	-0.0305176
0.0689697	-0.0317383
0.0222778	-0.0323486
-0.0335693	-0.032959
-0.0881958	-0.0335693
-0.105591	-0.0344849
-0.0970459	-0.0350952
-0.090332	-0.0350952
-0.090332	-0.0350952
-0.0646973	-0.0350952
-0.0125122	-0.0350952
0.0372314	-0.0344849
0.0665283	-0.0335693
0.071106	-0.0323486
0.0650024	-0.0311279
0.0588989	-0.0305176
0.0421143	-0.0302124
0.00946045	-0.0299072
-0.00152588	-0.0299072
0.00457764	-0.0308228
0.000305176	-0.0326538
-0.0137329	-0.0354004
-0.0363159	-0.0378418
-0.0561523	-0.0396729
-0.0540161	-0.0408936
-0.0323486	-0.0418091
-0.00579834	-0.0421143
-0.00274658	-0.0421143
-0.0119019	-0.0411987
0.000915527	-0.0393677
0.0259399	-0.0366211
0.0350952	-0.0332642
0.0280762	-0.0292969
0.0164795	-0.0250244
0.0161743	-0.020752
0.0250244	-0.015564
0.0219727	-0.0088501
0.00396729	-0.000915527
-0.0131226	0.00671387
-0.0238037	0.0140381
-0.0228882	0.0216675
-0.0137329	0.0296021
-0.0195313	0.0372314
-0.0195313	0.0448608
0.00213623	0.0518799
0.0146484	0.0585938
0.0189209	0.0646973
0.0262451	0.0704956
0.00915527	0.0765991
-0.0106812	0.0827026
-0.00823975	0.088501
-0.010376	0.0939941
-0.0228882	0.0991821
-0.0332642	0.10376
-0.0308228	0.107727
-0.00854492	0.110168
0.0302124	0.111389
0.0552368	0.110168
0.0506592	0.106201
0.03479	0.0991821
0.0241089	0.0906372
0.00274658	0.0808716
-0.0402832	0.0704956
-0.0793457	0.0588989
-0.0866699	0.0463867
-0.0646973	0.0341797
-0.032959	0.0228882
0.00579834	0.012207
0.0454712	0.00274658
0.0698853	-0.00610352
0.0765991	-0.0149536
0.0683594	-0.0238037
0.0436401	-0.0323486
0.00823975	-0.0402832
-0.0149536	-0.0469971
-0.0161743	-0.0531006
-0.0125122	-0.0582886
-0.0149536	-0.062561
-0.0259399	-0.0653076
-0.0378418	-0.0668335
-0.0323486	-0.0671387
-0.0115967	-0.0668335
-0.00579834	-0.0662231
-0.0259399	-0.065918
-0.0320435	-0.0665283
0.00213623	-0.0674438
0.0448608	-0.0689697
0.0671387	-0.0704956
0.0567627	-0.0726318
0.0341797	-0.0750732
0.0268555	-0.0775146
0.0228882	-0.0799561
-0.0189209	-0.0814819
-0.0701904	-0.0817871
-0.0814819	-0.0817871
-0.0616455	-0.0811768
-0.0320435	-0.0805664
-0.0140381	-0.0796509
-0.0286865	-0.0778198
-0.0375366	-0.0762939
-0.0146484	-0.0750732
0.0143433	-0.0738525
0.043335	-0.0732422
0.0570679	-0.072937
0.0521851	-0.0726318
0.0531006	-0.0723267
0.0601196	-0.0720215
0.0408936	-0.071106
0.00244141	-0.0708008
-0.0167847	-0.071106
-0.0280762	-0.0714111
-0.0408936	-0.0714111
-0.0509644	-0.071106
-0.0592041	-0.0714111
-0.0445557	-0.0720215
-0.00549316	-0.0726318
0.0326538	-0.0732422
0.0448608	-0.0735474
0.0500488	-0.0735474
0.0558472	-0.0726318
0.0491333	-0.0708008
0.0283813	-0.0689697
-0.015564	-0.0674438
-0.0512695	-0.0656128
-0.0610352	-0.0610352
-0.0549316	-0.0537109
-0.0454712	-0.0436401
-0.0369263	-0.0314331
-0.0280762	-0.0164795
-0.00488281	0.00213623
0.03479	0.0234985
0.0592041	0.0479126
0.0549316	0.0744629
0.0375366	0.102844
0.0198364	0.133362
0.00793457	0.168152
0.00579834	0.206604
-0.00152588	0.244751
-0.0143433	0.275879
-0.0125122	0.29541
-0.00823975	0.302734
-0.0143433	0.297241
-0.0384521	0.278015
-0.0735474	0.241699
-0.0750732	0.188904
-0.0454712	0.121765
0.000915527	0.0460815
0.0393677	-0.0320435
0.0387573	-0.104065
0.0552368	-0.163269
0.0979614	-0.204773
0.0912476	-0.226746
0.0476074	-0.229797
-0.0012207	-0.21637
-0.0415039	-0.190125
-0.03479	-0.155334
0.00396729	-0.116272
0.0100708	-0.0787354
-0.0262451	-0.0473022
-0.0689697	-0.0234985
-0.0735474	-0.00823975
-0.0552368	-0.0012207
-0.038147	-0.000915527
-0.0088501	-0.00518799
0.0372314	-0.0119019
0.0805664	-0.0186157
0.098877	-0.0247192
0.0921631	-0.0292969
0.0509644	-0.0320435
0.00946045	-0.032959
-0.0140381	-0.0326538
-0.0448608	-0.0314331
-0.0723267	-0.0296021
-0.0881958	-0.027771
-0.0952148	-0.0259399
-0.071106	-0.0247192
-0.055542	-0.0234985
-0.0674438	-0.0222778
-0.0769043	-0.0213623
-0.0418091	-0.0204468
0.0393677	-0.0201416
0.146179	-0.0198364
0.21759	-0.0195313
0.22644	-0.0186157
0.189819	-0.0180054
0.114136	-0.017395
0.012207	-0.0170898
-0.0915527	-0.0167847
-0.184326	-0.0164795
-0.219421	-0.015564
-0.192566	-0.0143433
-0.119629	-0.0128174
-0.0421143	-0.0115967
0.00640869	-0.0100708
0.0393677	-0.00823975
0.0692749	-0.00610352
0.0881958	-0.00366211
0.0930786	-0.00183105
0.0805664	-0.000305176
0.0622559	0.000915527
0.0378418	0.00183105
-0.00457764	0.00213623
-0.0695801	0.00244141
-0.124817	0.00274658
-0.137329	0.00305176
-0.112915	0.00366211
-0.0720215	0.00457764
-0.00823975	0.00610352
0.0689697	0.00762939
0.147705	0.00946045
0.205078	0.0115967
0.202026	0.0146484
0.143433	0.0180054
0.0518799	0.0210571
-0.0366211	0.0238037
-0.0866699	0.0259399
-0.115662	0.0271606
-0.129089	0.0280762
-0.101013	0.0292969
-0.0717163	0.0305176
-0.057373	0.0314331
-0.0439453	0.0323486
-0.0387573	0.0335693
-0.0283813	0.0357056
0.00518799	0.038147
0.0463867	0.0405884
0.0616455	0.0430298
0.0561523	0.0454712
0.03479	0.0482178
0.010376	0.0512695
0.00793457	0.0543213
0.010376	0.0567627
0.00305176	0.0592041
0.00396729	0.0616455
0.0158691	0.0643921
0.0302124	0.0668335
0.0537109	0.0689697
0.0543213	0.0717163
0.0158691	0.0741577
-0.027771	0.0765991
-0.0518799	0.0784302
-0.0708008	0.0808716
-0.0796509	0.0845337
-0.0692749	0.0891113
-0.0454712	0.0939941
-0.00762939	0.0991821
0.0305176	0.104675
0.0405884	0.110168
0.038147	0.116272
0.0372314	0.122681
0.0421143	0.129089
0.0460815	0.134583
0.020752	0.138855
-0.00976563	0.142517
-0.0213623	0.146179
-0.0189209	0.150452
-0.00579834	0.154419
-0.000305176	0.158386
0.00457764	0.162354
0.0170898	0.166321
0.0317383	0.169983
0.0350952	0.17395
0.00610352	0.178528
-0.0469971	0.183105
-0.0784302	0.187378
-0.0796509	0.192261
-0.0701904	0.196838
-0.0567627	0.201111
-0.0253296	0.205688
0.0244141	0.210571
0.0741577	0.215149
0.117798	0.218506
0.112305	0.221558
0.0634766	0.223999
0.0112915	0.22583
-0.0305176	0.22644
-0.0543213	0.227051
-0.0717163	0.227661
-0.0653076	0.228271
-0.0201416	0.228271
0.0256348	0.227051
0.0427246	0.22522
0.0396729	0.222778
0.00518799	0.218811
-0.0256348	0.214233
-0.0167847	0.208435
0.0088501	0.201416
-0.0012207	0.192871
-0.0219727	0.183411
-0.0143433	0.173035
-0.0189209	0.161743
-0.0292969	0.150146
-0.0283813	0.138245
-0.0201416	0.127563
0.0119019	0.117493
0.0338745	0.107117
0.0320435	0.0970459
0.0268555	0.0866699
0.0189209	0.0762939
0.0289917	0.0662231
0.039978	0.0561523
0.0192261	0.0463867
-0.00457764	0.0369263
-0.0262451	0.0274658
-0.0463867	0.0180054
-0.0213623	0.00854492
0.00640869	0
-0.00488281	-0.00793457
-0.0302124	-0.0152588
-0.0445557	-0.0213623
-0.0415039	-0.0262451
-0.0238037	-0.0308228
-0.00335693	-0.03479
0.012207	-0.0384521
0.0369263	-0.0418091
0.0564575	-0.0445557
0.0570679	-0.0469971
0.0302124	-0.0488281
-0.0125122	-0.0500488
-0.0292969	-0.0512695
-0.00335693	-0.0527954
-0.0128174	-0.0540161
-0.038147	-0.0552368
-0.0692749	-0.0564575
-0.0622559	-0.057373
0.0390625	-0.0579834
0.151062	-0.0576782
0.21698	-0.0567627
0.255737	-0.0558472
0.180664	-0.0552368
0.0259399	-0.0543213
-0.169983	-0.0534058
-0.393982	-0.0521851
-0.508728	-0.0512695
-0.453491	-0.0509644
-0.269775	-0.0506592
0.0183105	-0.050354
0.301514	-0.050354
0.475159	-0.050354
0.526733	-0.0506592
0.453491	-0.050354
0.252991	-0.0497437
-0.0222778	-0.0488281
-0.257263	-0.0473022
-0.406799	-0.0463867
-0.462036	-0.045166
-0.422668	-0.0439453
-0.256958	-0.0427246
-0.0152588	-0.0415039
0.231018	-0.039978
0.423584	-0.0384521
0.48584	-0.0375366
0.397339	-0.0366211
0.198669	-0.0350952
-0.0479126	-0.032959
-0.230103	-0.0305176
-0.318909	-0.0280762
-0.325928	-0.0253296
-0.249329	-0.0228882
-0.131226	-0.0210571
-0.00579834	-0.0189209
0.105591	-0.017395
0.139465	-0.0158691
0.104065	-0.0146484
0.078125	-0.0140381
0.06073	-0.0140381
0.0186157	-0.0143433
-0.0161743	-0.0152588
-0.0274658	-0.0158691
-0.0320435	-0.0164795
0.00579834	-0.0167847
0.0500488	-0.0164795
0.0585938	-0.0158691
0.0592041	-0.0152588
0.0445557	-0.0152588
0.0219727	-0.015564
-0.00427246	-0.0164795
-0.0500488	-0.0170898
-0.0820923	-0.0177002
-0.0756836	-0.0189209
-0.0482178	-0.020752
-0.0167847	-0.0231934
-0.00183105	-0.0253296
-0.0158691	-0.0268555
-0.0314331	-0.0286865
-0.012207	-0.0302124
0.00427246	-0.0311279
0.012207	-0.0311279
0.0448608	-0.0314331
0.0689697	-0.0317383
0.0772095	-0.0320435
0.0680542	-0.0320435
0.0164795	-0.0323486
-0.0482178	-0.032959
-0.0985718	-0.0338745
-0.115051	-0.03479
-0.0817871	-0.0360107
-0.050354	-0.0375366
-0.0198364	-0.0390625
0.0292969	-0.0402832
0.0759888	-0.0415039
0.111084	-0.0427246
0.110168	-0.043335
0.0723267	-0.0439453
0.0283813	-0.0448608
0.000915527	-0.045166
-0.00854492	-0.045166
-0.0283813	-0.0457764
-0.0674438	-0.0469971
-0.0915527	-0.0476074
-0.0799561	-0.0476074
-0.0411987	-0.0473022
-0.00854492	-0.0476074
-0.0012207	-0.0482178
0.0189209	-0.0488281
0.0491333	-0.0494385
0.0692749	-0.0497437
0.0585938	-0.0500488
0.0219727	-0.0506592
0.000915527	-0.0512695
-0.00457764	-0.0518799
-0.0106812	-0.0521851
-0.0146484	-0.0527954
-0.0363159	-0.0531006
-0.0500488	-0.0531006
-0.0421143	-0.0524902
-0.0335693	-0.0521851
-0.0259399	-0.0512695
-0.0131226	-0.0506592
0.0140381	-0.0506592
0.0540161	-0.050354
0.0811768	-0.050354
0.0692749	-0.0506592
0.0323486	-0.0512695
0.00915527	-0.0518799
0.000915527	-0.0527954
-0.0088501	-0.0534058
-0.0350952	-0.0543213
-0.0601196	-0.0546265
-0.0595093	-0.0543213
-0.015564	-0.0537109
0.0280762	-0.0534058
0.0314331	-0.0531006
0.0140381	-0.0534058
-0.00976563	-0.0531006
-0.0216675	-0.0527954
-0.0238037	-0.0524902
-0.0338745	-0.0521851
-0.0357056	-0.0521851
-0.0100708	-0.0527954
0.0280762	-0.0531006
0.0466919	-0.0534058
0.0469971	-0.0537109
0.032959	-0.0534058
0.017395	-0.0527954
0.0137329	-0.0518799
0.0137329	-0.0512695
0.000915527	-0.0512695
