L I	L III	L II(Calc.)
-0.065918	0.0305176	-0.0354004
-0.0643921	0.0308228	-0.0335693
-0.0631714	0.0311279	-0.0320435
-0.062561	0.0317383	-0.0308228
-0.0622559	0.0323486	-0.0299072
-0.0622559	0.032959	-0.0292969
-0.0619507	0.0332642	-0.0286865
-0.0604248	0.0335693	-0.0268555
-0.0579834	0.0338745	-0.0241089
-0.0552368	0.0335693	-0.0216675
-0.0531006	0.032959	-0.0201416
-0.0515747	0.0323486	-0.0192261
-0.0494385	0.0314331	-0.0180054
-0.0469971	0.0311279	-0.0158691
-0.0442505	0.0308228	-0.0134277
-0.0418091	0.0305176	-0.0112915
-0.0396729	0.0299072	-0.00976563
-0.0375366	0.0289917	-0.00854492
-0.0357056	0.0280762	-0.00762939
-0.0341797	0.0271606	-0.00701904
-0.0338745	0.0268555	-0.00701904
-0.0338745	0.0262451	-0.00762939
-0.0335693	0.0256348	-0.00793457
-0.0335693	0.0253296	-0.00823975
-0.0338745	0.0253296	-0.00854492
-0.03479	0.0253296	-0.00946045
-0.0363159	0.0256348	-0.0106812
-0.0378418	0.0259399	-0.0119019
-0.0372314	0.0259399	-0.0112915
-0.0357056	0.0256348	-0.0100708
-0.0344849	0.0253296	-0.00915527
-0.0338745	0.0253296	-0.00854492
-0.0332642	0.0253296	-0.00793457
-0.0317383	0.0253296	-0.00640869
-0.0296021	0.0253296	-0.00427246
-0.027771	0.0256348	-0.00213623
-0.0265503	0.0265503	0
-0.0262451	0.0274658	0.0012207
-0.0265503	0.0283813	0.00183105
-0.0274658	0.0286865	0.0012207
-0.0286865	0.0289917	0.000305176
-0.0299072	0.0292969	-0.000610352
-0.0311279	0.0296021	-0.00152588
-0.0320435	0.0292969	-0.00274658
-0.032959	0.0286865	-0.00427246
-0.0335693	0.0283813	-0.00518799
-0.0335693	0.0274658	-0.00610352
-0.0335693	0.0268555	-0.00671387
-0.0341797	0.0256348	-0.00854492
-0.0360107	0.0244141	-0.0115967
-0.0378418	0.0234985	-0.0143433
-0.0384521	0.0222778	-0.0161743
-0.0384521	0.0210571	-0.017395
-0.038147	0.0201416	-0.0180054
-0.038147	0.0198364	-0.0183105
-0.0384521	0.0198364	-0.0186157
-0.0378418	0.0195313	-0.0183105
-0.0366211	0.0195313	-0.0170898
-0.0357056	0.0192261	-0.0164795
-0.0354004	0.0195313	-0.0158691
-0.0357056	0.0201416	-0.015564
-0.0354004	0.0201416	-0.0152588
-0.0354004	0.0198364	-0.015564
-0.0363159	0.0186157	-0.0177002
-0.038147	0.017395	-0.020752
-0.0396729	0.0164795	-0.0231934
-0.0408936	0.0152588	-0.0256348
-0.0424194	0.0140381	-0.0283813
-0.0442505	0.0128174	-0.0314331
-0.0469971	0.0115967	-0.0354004
-0.0500488	0.0109863	-0.0390625
-0.0521851	0.010376	-0.0418091
-0.0527954	0.010376	-0.0424194
-0.0527954	0.0100708	-0.0427246
-0.0527954	0.00976563	-0.0430298
-0.0521851	0.00976563	-0.0424194
-0.0509644	0.00946045	-0.0415039
-0.0497437	0.00946045	-0.0402832
-0.0491333	0.00946045	-0.0396729
-0.0485229	0.00946045	-0.0390625
-0.0479126	0.00946045	-0.0384521
-0.0473022	0.00976563	-0.0375366
-0.0476074	0.010376	-0.0372314
-0.0491333	0.0106812	-0.0384521
-0.0509644	0.0109863	-0.039978
-0.0518799	0.0106812	-0.0411987
-0.0521851	0.010376	-0.0418091
-0.0524902	0.010376	-0.0421143
-0.0527954	0.0100708	-0.0427246
-0.0527954	0.00976563	-0.0430298
-0.0518799	0.00915527	-0.0427246
-0.0506592	0.0088501	-0.0418091
-0.050354	0.00823975	-0.0421143
-0.0515747	0.00823975	-0.043335
-0.0531006	0.00762939	-0.0454712
-0.0534058	0.00701904	-0.0463867
-0.0531006	0.00610352	-0.0469971
-0.0524902	0.00518799	-0.0473022
-0.0521851	0.00427246	-0.0479126
-0.0518799	0.00335693	-0.0485229
-0.0515747	0.00244141	-0.0491333
-0.0506592	0.0012207	-0.0494385
-0.0491333	0	-0.0491333
-0.0479126	-0.000305176	-0.0482178
-0.0469971	-0.000305176	-0.0473022
-0.0460815	0	-0.0460815
-0.0448608	0	-0.0448608
-0.0442505	0	-0.0442505
-0.0439453	-0.000305176	-0.0442505
-0.0448608	-0.000305176	-0.045166
-0.0457764	-0.000305176	-0.0460815
-0.0454712	-0.000610352	-0.0460815
-0.045166	-0.0012207	-0.0463867
-0.0454712	-0.00152588	-0.0469971
-0.0460815	-0.00213623	-0.0482178
-0.0457764	-0.00244141	-0.0482178
-0.045166	-0.00274658	-0.0479126
-0.0445557	-0.00335693	-0.0479126
-0.043335	-0.00366211	-0.0469971
-0.0415039	-0.00427246	-0.0457764
-0.0390625	-0.00457764	-0.0436401
-0.0369263	-0.00427246	-0.0411987
-0.0354004	-0.00427246	-0.0396729
-0.03479	-0.00396729	-0.0387573
-0.0344849	-0.00396729	-0.0384521
-0.0341797	-0.00427246	-0.0384521
-0.0335693	-0.00396729	-0.0375366
-0.0320435	-0.00335693	-0.0354004
-0.0302124	-0.00213623	-0.0323486
-0.0280762	-0.000610352	-0.0286865
-0.0253296	0.00152588	-0.0238037
-0.022583	0.00427246	-0.0183105
-0.0192261	0.00732422	-0.0119019
-0.0158691	0.0109863	-0.00488281
-0.0125122	0.0149536	0.00244141
-0.00976563	0.0192261	0.00946045
-0.00793457	0.0238037	0.0158691
-0.00610352	0.0286865	0.022583
-0.00518799	0.0332642	0.0280762
-0.00488281	0.0372314	0.0323486
-0.00518799	0.0408936	0.0357056
-0.00518799	0.0442505	0.0390625
-0.00335693	0.0469971	0.0436401
0	0.0494385	0.0494385
0.00305176	0.0512695	0.0543213
0.00640869	0.0524902	0.0588989
0.0106812	0.0527954	0.0634766
0.0167847	0.0524902	0.0692749
0.0238037	0.0518799	0.0756836
0.0302124	0.0512695	0.0814819
0.0350952	0.050354	0.0854492
0.0390625	0.0491333	0.0881958
0.0418091	0.0460815	0.0878906
0.043335	0.0418091	0.085144
0.043335	0.0372314	0.0805664
0.0418091	0.0323486	0.0741577
0.038147	0.027771	0.065918
0.0341797	0.0228882	0.0570679
0.0302124	0.017395	0.0476074
0.0262451	0.0115967	0.0378418
0.0216675	0.00579834	0.0274658
0.017395	0.000915527	0.0183105
0.0137329	-0.00366211	0.0100708
0.00976563	-0.00732422	0.00244141
0.00518799	-0.0100708	-0.00488281
0.000610352	-0.012207	-0.0115967
-0.00457764	-0.0140381	-0.0186157
-0.0100708	-0.015564	-0.0256348
-0.0152588	-0.0170898	-0.0323486
-0.0201416	-0.0186157	-0.0387573
-0.0253296	-0.0198364	-0.045166
-0.0305176	-0.0210571	-0.0515747
-0.0350952	-0.0222778	-0.057373
-0.038147	-0.0234985	-0.0616455
-0.0393677	-0.0244141	-0.0637817
-0.0402832	-0.0250244	-0.0653076
-0.0408936	-0.0253296	-0.0662231
-0.0418091	-0.0253296	-0.0671387
-0.0430298	-0.0247192	-0.067749
-0.0442505	-0.0241089	-0.0683594
-0.0457764	-0.0231934	-0.0689697
-0.0473022	-0.0222778	-0.0695801
-0.0482178	-0.0213623	-0.0695801
-0.0479126	-0.0210571	-0.0689697
-0.0469971	-0.020752	-0.067749
-0.0466919	-0.0198364	-0.0665283
-0.0466919	-0.0192261	-0.065918
-0.0460815	-0.0183105	-0.0643921
-0.0448608	-0.0180054	-0.0628662
-0.0430298	-0.0183105	-0.0613403
-0.0424194	-0.0186157	-0.0610352
-0.0421143	-0.0189209	-0.0610352
-0.0421143	-0.0189209	-0.0610352
-0.0427246	-0.0186157	-0.0613403
-0.0427246	-0.0186157	-0.0613403
-0.0427246	-0.0192261	-0.0619507
-0.0427246	-0.020752	-0.0634766
-0.0424194	-0.0222778	-0.0646973
-0.0421143	-0.0234985	-0.0656128
-0.0424194	-0.0241089	-0.0665283
-0.0424194	-0.0241089	-0.0665283
-0.0430298	-0.0241089	-0.0671387
-0.0436401	-0.0238037	-0.0674438
-0.043335	-0.0231934	-0.0665283
-0.0418091	-0.0216675	-0.0634766
-0.039978	-0.0201416	-0.0601196
-0.0378418	-0.0189209	-0.0567627
-0.0357056	-0.0177002	-0.0534058
-0.0335693	-0.0177002	-0.0512695
-0.0308228	-0.0177002	-0.0485229
-0.0283813	-0.0186157	-0.0469971
-0.0262451	-0.0195313	-0.0457764
-0.0253296	-0.020752	-0.0460815
-0.0253296	-0.0222778	-0.0476074
-0.0256348	-0.0241089	-0.0497437
-0.0262451	-0.0256348	-0.0518799
-0.0274658	-0.0265503	-0.0540161
-0.0292969	-0.0265503	-0.0558472
-0.0314331	-0.0259399	-0.057373
-0.032959	-0.0253296	-0.0582886
-0.0344849	-0.0247192	-0.0592041
-0.0357056	-0.0231934	-0.0588989
-0.0363159	-0.0204468	-0.0567627
-0.0360107	-0.0149536	-0.0509644
-0.0344849	-0.00793457	-0.0424194
-0.0314331	0.000305176	-0.0311279
-0.0256348	0.00946045	-0.0161743
-0.0164795	0.0189209	0.00244141
-0.00244141	0.0274658	0.0250244
0.0177002	0.032959	0.0506592
0.045166	0.03479	0.0799561
0.0787354	0.032959	0.111694
0.116882	0.0292969	0.146179
0.158997	0.0259399	0.184937
0.203552	0.0222778	0.22583
0.248413	0.0140381	0.262451
0.290527	-0.00213623	0.288391
0.326233	-0.0250244	0.301208
0.352173	-0.0515747	0.300598
0.365295	-0.0762939	0.289001
0.360718	-0.0973511	0.263367
0.336304	-0.115051	0.221252
0.293884	-0.1297	0.164185
0.235596	-0.139465	0.0961304
0.1651	-0.142517	0.022583
0.0878906	-0.137939	-0.0500488
0.0106812	-0.125122	-0.114441
-0.0598145	-0.104065	-0.163879
-0.118408	-0.0772095	-0.195618
-0.161438	-0.0482178	-0.209656
-0.185547	-0.020752	-0.206299
-0.189819	0.0012207	-0.188599
-0.176697	0.0161743	-0.160522
-0.150757	0.0234985	-0.127258
-0.115662	0.0244141	-0.0912476
-0.0769043	0.0198364	-0.0570679
-0.0396729	0.0112915	-0.0283813
-0.00793457	0.000610352	-0.00732422
0.0152588	-0.00976563	0.00549316
0.0292969	-0.0186157	0.0106812
0.0360107	-0.0253296	0.0106812
0.0360107	-0.0296021	0.00640869
0.0308228	-0.0314331	-0.000610352
0.0228882	-0.0314331	-0.00854492
0.0149536	-0.0302124	-0.0152588
0.00732422	-0.0286865	-0.0213623
0.00152588	-0.0271606	-0.0256348
-0.0012207	-0.0259399	-0.0271606
-0.00183105	-0.0253296	-0.0271606
-0.000915527	-0.0256348	-0.0265503
0.000915527	-0.0262451	-0.0253296
0.00335693	-0.0268555	-0.0234985
0.00640869	-0.027771	-0.0213623
0.00946045	-0.0283813	-0.0189209
0.0125122	-0.0289917	-0.0164795
0.015564	-0.0292969	-0.0137329
0.0183105	-0.0299072	-0.0115967
0.0195313	-0.0308228	-0.0112915
0.0192261	-0.0311279	-0.0119019
0.0180054	-0.0317383	-0.0137329
0.0170898	-0.0323486	-0.0152588
0.0167847	-0.0326538	-0.0158691
0.0167847	-0.0326538	-0.0158691
0.0161743	-0.0326538	-0.0164795
0.0149536	-0.0323486	-0.017395
0.0143433	-0.0314331	-0.0170898
0.0158691	-0.0305176	-0.0146484
0.0183105	-0.0296021	-0.0112915
0.0210571	-0.0283813	-0.00732422
0.0228882	-0.0265503	-0.00366211
0.0241089	-0.0244141	-0.000305176
0.0262451	-0.0228882	0.00335693
0.0289917	-0.0216675	0.00732422
0.0305176	-0.0213623	0.00915527
0.0317383	-0.0213623	0.010376
0.0317383	-0.0213623	0.010376
0.0311279	-0.0219727	0.00915527
0.0299072	-0.0228882	0.00701904
0.0289917	-0.0238037	0.00518799
0.027771	-0.0247192	0.00305176
0.0268555	-0.0253296	0.00152588
0.0280762	-0.0262451	0.00183105
0.0302124	-0.0268555	0.00335693
0.0332642	-0.0274658	0.00579834
0.0360107	-0.027771	0.00823975
0.0390625	-0.0280762	0.0109863
0.0424194	-0.0280762	0.0143433
0.0460815	-0.0280762	0.0180054
0.0488281	-0.0280762	0.020752
0.0500488	-0.027771	0.0222778
0.0506592	-0.0271606	0.0234985
0.0509644	-0.0265503	0.0244141
0.0515747	-0.0259399	0.0256348
0.0515747	-0.0250244	0.0265503
0.0515747	-0.0244141	0.0271606
0.0527954	-0.0234985	0.0292969
0.0552368	-0.0231934	0.0320435
0.0585938	-0.0231934	0.0354004
0.0622559	-0.0238037	0.0384521
0.0662231	-0.0244141	0.0418091
0.0698853	-0.0250244	0.0448608
0.072937	-0.0250244	0.0479126
0.0747681	-0.0253296	0.0494385
0.0756836	-0.0253296	0.050354
0.0765991	-0.0256348	0.0509644
0.0769043	-0.0256348	0.0512695
0.0772095	-0.0250244	0.0521851
0.078125	-0.0244141	0.0537109
0.0796509	-0.0241089	0.055542
0.0814819	-0.0238037	0.0576782
0.0839233	-0.0234985	0.0604248
0.0875854	-0.0234985	0.0640869
0.0918579	-0.0238037	0.0680542
0.0964355	-0.0238037	0.0726318
0.101013	-0.0244141	0.0765991
0.10498	-0.0250244	0.0799561
0.107727	-0.0256348	0.0820923
0.109863	-0.0262451	0.0836182
0.11261	-0.0271606	0.0854492
0.116272	-0.0286865	0.0875854
0.120239	-0.0302124	0.0900269
0.124512	-0.0323486	0.0921631
0.128784	-0.0350952	0.093689
0.132751	-0.0372314	0.09552
0.136108	-0.0390625	0.0970459
0.139771	-0.0405884	0.0991821
0.144958	-0.0418091	0.103149
0.150452	-0.0427246	0.107727
0.155029	-0.043335	0.111694
0.158081	-0.0439453	0.114136
0.160828	-0.0442505	0.116577
0.165405	-0.045166	0.120239
0.171509	-0.0463867	0.125122
0.177917	-0.0476074	0.13031
0.184021	-0.0488281	0.135193
0.19043	-0.0500488	0.140381
0.197754	-0.0515747	0.146179
0.205994	-0.0534058	0.152588
0.213928	-0.0549316	0.158997
0.221252	-0.0567627	0.16449
0.227661	-0.0579834	0.169678
0.233154	-0.0592041	0.17395
0.237732	-0.0601196	0.177612
0.242004	-0.0610352	0.180969
0.245667	-0.0622559	0.183411
0.249023	-0.0631714	0.185852
0.25177	-0.0637817	0.187988
0.254211	-0.0646973	0.189514
0.256653	-0.0656128	0.19104
0.258789	-0.0665283	0.192261
0.26123	-0.0674438	0.193787
0.263062	-0.0683594	0.194702
0.264282	-0.0689697	0.195313
0.265503	-0.0692749	0.196228
0.267944	-0.0692749	0.198669
0.270996	-0.0692749	0.201721
0.272827	-0.0692749	0.203552
0.273438	-0.0680542	0.205383
0.272522	-0.065918	0.206604
0.271606	-0.062561	0.209045
0.270691	-0.0582886	0.212402
0.268555	-0.0531006	0.215454
0.263977	-0.0469971	0.21698
0.256653	-0.0402832	0.21637
0.247498	-0.032959	0.214539
0.237427	-0.0256348	0.211792
0.22644	-0.0183105	0.20813
0.214233	-0.0112915	0.202942
0.200195	-0.00488281	0.195313
0.184937	0.00152588	0.186462
0.168457	0.00823975	0.176697
0.151062	0.0149536	0.166016
0.133362	0.0210571	0.154419
0.116272	0.0265503	0.142822
0.100403	0.0314331	0.131836
0.085144	0.0360107	0.121155
0.0698853	0.039978	0.109863
0.0558472	0.0430298	0.098877
0.0439453	0.045166	0.0891113
0.0341797	0.0466919	0.0808716
0.0247192	0.0476074	0.0723267
0.0164795	0.0476074	0.0640869
0.00946045	0.0466919	0.0561523
0.00305176	0.0457764	0.0488281
-0.00305176	0.0448608	0.0418091
-0.00915527	0.0439453	0.03479
-0.0149536	0.043335	0.0283813
-0.0213623	0.0430298	0.0216675
-0.0280762	0.0430298	0.0149536
-0.03479	0.0436401	0.0088501
-0.0405884	0.0442505	0.00366211
-0.0463867	0.0454712	-0.000915527
-0.0515747	0.0463867	-0.00518799
-0.0561523	0.0466919	-0.00946045
-0.0592041	0.0460815	-0.0131226
-0.0610352	0.0448608	-0.0161743
-0.0616455	0.0427246	-0.0189209
-0.0619507	0.0408936	-0.0210571
-0.0616455	0.0390625	-0.022583
-0.06073	0.0369263	-0.0238037
-0.0592041	0.0344849	-0.0247192
-0.0570679	0.0326538	-0.0244141
-0.0549316	0.0311279	-0.0238037
-0.0537109	0.0308228	-0.0228882
-0.0534058	0.0308228	-0.022583
-0.0534058	0.0308228	-0.022583
-0.0531006	0.0305176	-0.022583
-0.0524902	0.0299072	-0.022583
-0.0527954	0.0296021	-0.0231934
-0.0534058	0.0292969	-0.0241089
-0.0540161	0.0289917	-0.0250244
-0.0540161	0.0283813	-0.0256348
-0.0531006	0.0274658	-0.0256348
-0.0512695	0.0268555	-0.0244141
-0.0497437	0.0268555	-0.0228882
-0.0491333	0.0271606	-0.0219727
-0.0485229	0.0274658	-0.0210571
-0.0476074	0.027771	-0.0198364
-0.0463867	0.0283813	-0.0180054
-0.0448608	0.0289917	-0.0158691
-0.0424194	0.0292969	-0.0131226
-0.0405884	0.0292969	-0.0112915
-0.0396729	0.0286865	-0.0109863
-0.0396729	0.027771	-0.0119019
-0.0393677	0.0268555	-0.0125122
-0.0375366	0.0262451	-0.0112915
-0.0354004	0.0262451	-0.00915527
-0.0335693	0.0259399	-0.00762939
-0.0320435	0.0256348	-0.00640869
-0.0302124	0.0250244	-0.00518799
-0.0286865	0.0244141	-0.00427246
-0.027771	0.0241089	-0.00366211
-0.0265503	0.0238037	-0.00274658
-0.0256348	0.0231934	-0.00244141
-0.0250244	0.0228882	-0.00213623
-0.0244141	0.022583	-0.00183105
-0.0234985	0.0222778	-0.0012207
-0.0228882	0.0216675	-0.0012207
-0.022583	0.0210571	-0.00152588
-0.0228882	0.0210571	-0.00183105
-0.0228882	0.0213623	-0.00152588
-0.0222778	0.022583	0.000305176
-0.022583	0.0241089	0.00152588
-0.0238037	0.0259399	0.00213623
-0.0247192	0.0274658	0.00274658
-0.0244141	0.0280762	0.00366211
-0.0231934	0.0280762	0.00488281
-0.0216675	0.0280762	0.00640869
-0.0204468	0.0280762	0.00762939
-0.0189209	0.0274658	0.00854492
-0.0180054	0.0265503	0.00854492
-0.017395	0.0253296	0.00793457
-0.0177002	0.0234985	0.00579834
-0.0183105	0.0213623	0.00305176
-0.0186157	0.0192261	0.000610352
-0.0183105	0.0177002	-0.000610352
-0.0186157	0.0164795	-0.00213623
-0.0201416	0.0152588	-0.00488281
-0.0228882	0.0146484	-0.00823975
-0.0253296	0.0140381	-0.0112915
-0.0265503	0.0137329	-0.0128174
-0.0268555	0.0131226	-0.0137329
-0.0268555	0.012207	-0.0146484
-0.0274658	0.0112915	-0.0161743
-0.0286865	0.0106812	-0.0180054
-0.0292969	0.0100708	-0.0192261
-0.0302124	0.00946045	-0.020752
-0.0323486	0.00854492	-0.0238037
-0.0354004	0.00762939	-0.027771
-0.0375366	0.00640869	-0.0311279
-0.038147	0.00488281	-0.0332642
-0.0378418	0.00335693	-0.0344849
-0.0372314	0.00213623	-0.0350952
-0.0369263	0.00152588	-0.0354004
-0.0366211	0.000915527	-0.0357056
-0.0354004	0.000915527	-0.0344849
-0.0344849	0.0012207	-0.0332642
-0.0341797	0.00183105	-0.0323486
-0.03479	0.00213623	-0.0326538
-0.0357056	0.00274658	-0.032959
-0.0363159	0.00305176	-0.0332642
-0.0375366	0.00366211	-0.0338745
-0.0390625	0.00366211	-0.0354004
-0.0411987	0.00305176	-0.038147
-0.0436401	0.00213623	-0.0415039
-0.0454712	0.000610352	-0.0448608
-0.0466919	-0.000610352	-0.0473022
-0.0473022	-0.00213623	-0.0494385
-0.0479126	-0.00305176	-0.0509644
-0.0476074	-0.00335693	-0.0509644
-0.0469971	-0.00396729	-0.0509644
-0.0460815	-0.00396729	-0.0500488
-0.045166	-0.00396729	-0.0491333
-0.0445557	-0.00335693	-0.0479126
-0.0439453	-0.00305176	-0.0469971
-0.043335	-0.00274658	-0.0460815
-0.0421143	-0.00305176	-0.045166
-0.0405884	-0.00335693	-0.0439453
-0.0390625	-0.00335693	-0.0424194
-0.0387573	-0.00366211	-0.0424194
-0.0393677	-0.00427246	-0.0436401
-0.0411987	-0.00488281	-0.0460815
-0.0430298	-0.00518799	-0.0482178
-0.0436401	-0.00518799	-0.0488281
-0.0439453	-0.00549316	-0.0494385
-0.0439453	-0.00549316	-0.0494385
-0.0436401	-0.00579834	-0.0494385
-0.0430298	-0.00579834	-0.0488281
-0.0430298	-0.00549316	-0.0485229
-0.043335	-0.00518799	-0.0485229
-0.0424194	-0.00457764	-0.0469971
-0.0408936	-0.00366211	-0.0445557
-0.0402832	-0.00305176	-0.043335
-0.0405884	-0.00274658	-0.043335
-0.0408936	-0.00244141	-0.043335
-0.0405884	-0.00274658	-0.043335
-0.039978	-0.00335693	-0.043335
-0.0387573	-0.00366211	-0.0424194
-0.0366211	-0.00427246	-0.0408936
-0.0338745	-0.00457764	-0.0384521
-0.0302124	-0.00396729	-0.0341797
-0.0256348	-0.00213623	-0.027771
-0.0210571	0.000915527	-0.0201416
-0.0170898	0.00579834	-0.0112915
-0.0143433	0.0119019	-0.00244141
-0.0119019	0.0186157	0.00671387
-0.00946045	0.0253296	0.0158691
-0.00762939	0.0317383	0.0241089
-0.00640869	0.038147	0.0317383
-0.00488281	0.043335	0.0384521
-0.00366211	0.0473022	0.0436401
-0.00244141	0.0494385	0.0469971
-0.000610352	0.0506592	0.0500488
0.00183105	0.0515747	0.0534058
0.00549316	0.0521851	0.0576782
0.00976563	0.0521851	0.0619507
0.0143433	0.0518799	0.0662231
0.0183105	0.0515747	0.0698853
0.0219727	0.0512695	0.0732422
0.0253296	0.0512695	0.0765991
0.0289917	0.050354	0.0793457
0.0332642	0.0485229	0.0817871
0.0372314	0.0454712	0.0827026
0.0402832	0.0411987	0.0814819
0.0427246	0.0350952	0.0778198
0.0439453	0.0274658	0.0714111
0.0448608	0.0198364	0.0646973
0.0448608	0.012207	0.0570679
0.0439453	0.00457764	0.0485229
0.0415039	-0.00213623	0.0393677
0.0375366	-0.00793457	0.0296021
0.0323486	-0.0128174	0.0195313
0.0268555	-0.0170898	0.00976563
0.020752	-0.0198364	0.000915527
0.0146484	-0.0216675	-0.00701904
0.00762939	-0.022583	-0.0149536
0.000610352	-0.0231934	-0.022583
-0.00579834	-0.0234985	-0.0292969
-0.0115967	-0.0244141	-0.0360107
-0.0167847	-0.0256348	-0.0424194
-0.0213623	-0.0268555	-0.0482178
-0.0253296	-0.0283813	-0.0537109
-0.0292969	-0.0299072	-0.0592041
-0.032959	-0.0314331	-0.0643921
-0.0360107	-0.0323486	-0.0683594
-0.038147	-0.0332642	-0.0714111
-0.039978	-0.0344849	-0.0744629
-0.0415039	-0.0350952	-0.0765991
-0.0427246	-0.0354004	-0.078125
-0.0439453	-0.0350952	-0.0790405
-0.0457764	-0.0350952	-0.0808716
-0.0460815	-0.0350952	-0.0811768
-0.0454712	-0.0354004	-0.0808716
-0.0442505	-0.0350952	-0.0793457
-0.0430298	-0.03479	-0.0778198
-0.0421143	-0.0341797	-0.0762939
-0.0418091	-0.0335693	-0.0753784
-0.0415039	-0.032959	-0.0744629
-0.039978	-0.0323486	-0.0723267
-0.0384521	-0.0317383	-0.0701904
-0.0372314	-0.0314331	-0.0686646
-0.0360107	-0.0317383	-0.067749
-0.0354004	-0.0320435	-0.0674438
-0.0354004	-0.0323486	-0.067749
-0.0354004	-0.0332642	-0.0686646
-0.03479	-0.03479	-0.0695801
-0.0341797	-0.0366211	-0.0708008
-0.03479	-0.0384521	-0.0732422
-0.0350952	-0.039978	-0.0750732
-0.03479	-0.0411987	-0.0759888
-0.0350952	-0.0424194	-0.0775146
-0.0357056	-0.0430298	-0.0787354
-0.0360107	-0.0430298	-0.0790405
-0.0354004	-0.0424194	-0.0778198
-0.0344849	-0.0418091	-0.0762939
-0.0335693	-0.0408936	-0.0744629
-0.0338745	-0.039978	-0.0738525
-0.03479	-0.0393677	-0.0741577
-0.0341797	-0.0387573	-0.072937
-0.0320435	-0.0387573	-0.0708008
-0.0302124	-0.0393677	-0.0695801
-0.0296021	-0.0405884	-0.0701904
-0.0296021	-0.0418091	-0.0714111
-0.0296021	-0.0427246	-0.0723267
-0.0296021	-0.0436401	-0.0732422
-0.0296021	-0.0442505	-0.0738525
-0.0292969	-0.0448608	-0.0741577
-0.0292969	-0.0448608	-0.0741577
-0.0299072	-0.0445557	-0.0744629
-0.0314331	-0.043335	-0.0747681
-0.0341797	-0.0411987	-0.0753784
-0.0357056	-0.0384521	-0.0741577
-0.0360107	-0.0335693	-0.0695801
-0.0350952	-0.0259399	-0.0610352
-0.0326538	-0.0164795	-0.0491333
-0.0299072	-0.00488281	-0.03479
-0.0253296	0.0088501	-0.0164795
-0.0167847	0.022583	0.00579834
-0.00213623	0.03479	0.0326538
0.0183105	0.045166	0.0634766
0.0448608	0.0518799	0.0967407
0.0775146	0.0549316	0.132446
0.116272	0.0540161	0.170288
0.160217	0.0500488	0.210266
0.207825	0.043335	0.25116
0.256653	0.0302124	0.286865
0.304565	0.00671387	0.311279
0.348206	-0.0268555	0.32135
0.383301	-0.0662231	0.317078
0.404968	-0.10498	0.299988
0.408936	-0.141602	0.267334
0.392761	-0.175476	0.217285
0.355835	-0.204773	0.151062
0.300293	-0.227356	0.072937
0.230713	-0.239258	-0.00854492
0.152893	-0.238953	-0.0860596
0.0723267	-0.225525	-0.153198
-0.00427246	-0.19989	-0.204163
-0.0714111	-0.16571	-0.237122
-0.123901	-0.126648	-0.250549
-0.15686	-0.0881958	-0.245056
-0.169373	-0.0540161	-0.223389
-0.163574	-0.0274658	-0.19104
-0.143127	-0.00915527	-0.152283
-0.11261	0	-0.11261
-0.0778198	0.000610352	-0.0772095
-0.0436401	-0.00579834	-0.0494385
-0.0143433	-0.0161743	-0.0305176
0.00732422	-0.027771	-0.0204468
0.020752	-0.0387573	-0.0180054
0.0265503	-0.0476074	-0.0210571
0.0265503	-0.0537109	-0.0271606
0.0216675	-0.0567627	-0.0350952
0.0146484	-0.057373	-0.0427246
0.00762939	-0.0558472	-0.0482178
0.00152588	-0.0534058	-0.0518799
-0.00244141	-0.0509644	-0.0534058
-0.00457764	-0.0488281	-0.0534058
-0.00518799	-0.0476074	-0.0527954
-0.00427246	-0.0469971	-0.0512695
-0.00305176	-0.0469971	-0.0500488
-0.00305176	-0.0469971	-0.0500488
-0.00396729	-0.0476074	-0.0515747
-0.00488281	-0.0485229	-0.0534058
-0.00549316	-0.0491333	-0.0546265
-0.00518799	-0.0497437	-0.0549316
-0.00335693	-0.050354	-0.0537109
-0.0012207	-0.0506592	-0.0518799
0.000915527	-0.0515747	-0.0506592
0.00305176	-0.0521851	-0.0491333
0.00457764	-0.0527954	-0.0482178
0.00579834	-0.0531006	-0.0473022
0.00732422	-0.0537109	-0.0463867
0.0088501	-0.0537109	-0.0448608
0.010376	-0.0540161	-0.0436401
0.0112915	-0.0543213	-0.0430298
0.0112915	-0.0543213	-0.0430298
0.0106812	-0.0540161	-0.043335
0.0106812	-0.0534058	-0.0427246
0.010376	-0.0521851	-0.0418091
0.0100708	-0.0509644	-0.0408936
0.00915527	-0.0497437	-0.0405884
0.00915527	-0.0491333	-0.039978
0.00915527	-0.0482178	-0.0390625
0.00976563	-0.0469971	-0.0372314
0.0112915	-0.0460815	-0.03479
0.0134277	-0.0457764	-0.0323486
0.0152588	-0.0454712	-0.0302124
0.0177002	-0.0457764	-0.0280762
0.020752	-0.0463867	-0.0256348
0.0241089	-0.0469971	-0.0228882
0.0271606	-0.0482178	-0.0210571
0.0308228	-0.0491333	-0.0183105
0.03479	-0.0500488	-0.0152588
0.0387573	-0.0509644	-0.012207
0.0411987	-0.0515747	-0.010376
0.0421143	-0.0521851	-0.0100708
0.0421143	-0.0521851	-0.0100708
0.0411987	-0.0518799	-0.0106812
0.039978	-0.0515747	-0.0115967
0.0393677	-0.0512695	-0.0119019
0.039978	-0.0515747	-0.0115967
0.0408936	-0.0518799	-0.0109863
0.0415039	-0.0521851	-0.0106812
0.0424194	-0.0524902	-0.0100708
0.0439453	-0.0527954	-0.0088501
0.0457764	-0.0534058	-0.00762939
0.0485229	-0.0537109	-0.00518799
0.0524902	-0.0540161	-0.00152588
0.057373	-0.0540161	0.00335693
0.0613403	-0.0534058	0.00793457
0.0650024	-0.0527954	0.012207
0.0683594	-0.0524902	0.0158691
0.0714111	-0.0524902	0.0189209
0.0738525	-0.0521851	0.0216675
0.0753784	-0.0518799	0.0234985
0.0772095	-0.0521851	0.0250244
0.0787354	-0.0531006	0.0256348
0.0805664	-0.0543213	0.0262451
0.0814819	-0.055542	0.0259399
0.0827026	-0.0570679	0.0256348
0.0842285	-0.0582886	0.0259399
0.0857544	-0.0588989	0.0268555
0.0869751	-0.0598145	0.0271606
0.088501	-0.0604248	0.0280762
0.0906372	-0.0613403	0.0292969
0.0930786	-0.0619507	0.0311279
0.0967407	-0.0622559	0.0344849
0.101318	-0.062561	0.0387573
0.105591	-0.0634766	0.0421143
0.109863	-0.0643921	0.0454712
0.113831	-0.0653076	0.0485229
0.117798	-0.0665283	0.0512695
0.122986	-0.067749	0.0552368
0.128784	-0.0692749	0.0595093
0.134277	-0.0708008	0.0634766
0.139771	-0.0723267	0.0674438
0.144958	-0.0735474	0.0714111
0.149231	-0.0747681	0.0744629
0.153503	-0.0759888	0.0775146
0.158081	-0.0765991	0.0814819
0.163269	-0.0775146	0.0857544
0.168762	-0.0787354	0.0900269
0.174255	-0.0799561	0.0942993
0.179443	-0.0814819	0.0979614
0.184631	-0.0830078	0.101624
0.190735	-0.0845337	0.106201
0.198059	-0.0866699	0.111389
0.205383	-0.0888062	0.116577
0.212708	-0.0909424	0.121765
0.219421	-0.0930786	0.126343
0.226135	-0.0949097	0.131226
0.232849	-0.0964355	0.136414
0.238647	-0.0973511	0.141296
0.243835	-0.0982666	0.145569
0.248413	-0.098877	0.149536
0.252991	-0.0994873	0.153503
0.256958	-0.100098	0.15686
0.26062	-0.100403	0.160217
0.263672	-0.100708	0.162964
0.266724	-0.101013	0.16571
0.26947	-0.101013	0.168457
0.271912	-0.100708	0.171204
0.274048	-0.100403	0.173645
0.276184	-0.0994873	0.176697
0.27832	-0.0982666	0.180054
0.279236	-0.0967407	0.182495
0.27832	-0.0946045	0.183716
0.275574	-0.0918579	0.183716
0.272217	-0.0881958	0.184021
0.26825	-0.0845337	0.183716
0.263367	-0.0802612	0.183105
0.256348	-0.0756836	0.180664
0.247803	-0.0708008	0.177002
0.237732	-0.0653076	0.172424
0.226135	-0.0592041	0.166931
0.213013	-0.0531006	0.159912
0.198669	-0.0466919	0.151978
0.183716	-0.0402832	0.143433
0.167847	-0.0338745	0.133972
0.152588	-0.027771	0.124817
0.137329	-0.0219727	0.115356
0.121155	-0.0164795	0.104675
0.10498	-0.0112915	0.093689
0.0888062	-0.00701904	0.0817871
0.072937	-0.00305176	0.0698853
0.0588989	0.000305176	0.0592041
0.0469971	0.00274658	0.0497437
0.0363159	0.00457764	0.0408936
0.0256348	0.00640869	0.0320435
0.0143433	0.00732422	0.0216675
0.00366211	0.00823975	0.0119019
-0.00579834	0.00854492	0.00274658
-0.0134277	0.00854492	-0.00488281
-0.0201416	0.0088501	-0.0112915
-0.0262451	0.00823975	-0.0180054
-0.0326538	0.00762939	-0.0250244
-0.0384521	0.00610352	-0.0323486
-0.0436401	0.00457764	-0.0390625
-0.0482178	0.00274658	-0.0454712
-0.0515747	0.000610352	-0.0509644
-0.0549316	-0.000915527	-0.0558472
-0.0585938	-0.00244141	-0.0610352
-0.0619507	-0.00396729	-0.065918
-0.0637817	-0.00579834	-0.0695801
-0.0640869	-0.00762939	-0.0717163
-0.0640869	-0.00854492	-0.0726318
-0.0640869	-0.00946045	-0.0735474
-0.0646973	-0.00976563	-0.0744629
-0.0650024	-0.0100708	-0.0750732
-0.0646973	-0.010376	-0.0750732
-0.0640869	-0.0109863	-0.0750732
-0.0637817	-0.0115967	-0.0753784
-0.0640869	-0.0119019	-0.0759888
-0.0646973	-0.012207	-0.0769043
-0.0650024	-0.0125122	-0.0775146
-0.0646973	-0.0125122	-0.0772095
-0.0646973	-0.0128174	-0.0775146
-0.0650024	-0.0128174	-0.0778198
-0.0653076	-0.0131226	-0.0784302
-0.0650024	-0.0131226	-0.078125
-0.0640869	-0.0134277	-0.0775146
-0.0631714	-0.0137329	-0.0769043
-0.062561	-0.0134277	-0.0759888
-0.0622559	-0.0134277	-0.0756836
-0.0622559	-0.0134277	-0.0756836
-0.0628662	-0.0137329	-0.0765991
-0.0650024	-0.0137329	-0.0787354
-0.0674438	-0.0137329	-0.0811768
-0.0686646	-0.0140381	-0.0827026
-0.0689697	-0.0143433	-0.083313
-0.0686646	-0.0146484	-0.083313
-0.0686646	-0.0149536	-0.0836182
-0.0680542	-0.0152588	-0.083313
-0.0671387	-0.0149536	-0.0820923
-0.0653076	-0.0143433	-0.0796509
-0.0628662	-0.0140381	-0.0769043
-0.0595093	-0.0137329	-0.0732422
-0.0558472	-0.0134277	-0.0692749
-0.0521851	-0.0128174	-0.0650024
-0.0491333	-0.0128174	-0.0619507
-0.0463867	-0.0128174	-0.0592041
-0.0442505	-0.0131226	-0.057373
-0.0430298	-0.0137329	-0.0567627
-0.0427246	-0.0143433	-0.0570679
-0.0430298	-0.0149536	-0.0579834
-0.0442505	-0.015564	-0.0598145
-0.0457764	-0.0161743	-0.0619507
-0.0466919	-0.0164795	-0.0631714
-0.0473022	-0.0161743	-0.0634766
-0.0479126	-0.015564	-0.0634766
-0.0488281	-0.0146484	-0.0634766
-0.0497437	-0.0137329	-0.0634766
-0.0500488	-0.0128174	-0.0628662
-0.0491333	-0.0119019	-0.0610352
-0.0473022	-0.0109863	-0.0582886
-0.0457764	-0.010376	-0.0561523
-0.0442505	-0.0100708	-0.0543213
-0.0421143	-0.00976563	-0.0518799
-0.0402832	-0.010376	-0.0506592
-0.0390625	-0.0109863	-0.0500488
-0.038147	-0.0119019	-0.0500488
-0.0372314	-0.0128174	-0.0500488
-0.0363159	-0.0134277	-0.0497437
-0.0354004	-0.0140381	-0.0494385
-0.0350952	-0.0146484	-0.0497437
-0.0354004	-0.015564	-0.0509644
-0.0360107	-0.0164795	-0.0524902
-0.0375366	-0.0167847	-0.0543213
-0.0393677	-0.0170898	-0.0564575
-0.0402832	-0.017395	-0.0576782
-0.0411987	-0.0183105	-0.0595093
-0.0421143	-0.0189209	-0.0610352
-0.0439453	-0.0198364	-0.0637817
-0.045166	-0.020752	-0.065918
-0.045166	-0.0216675	-0.0668335
-0.0445557	-0.0222778	-0.0668335
-0.0439453	-0.0231934	-0.0671387
-0.043335	-0.0238037	-0.0671387
-0.0427246	-0.0241089	-0.0668335
-0.0427246	-0.0241089	-0.0668335
-0.0430298	-0.0238037	-0.0668335
-0.043335	-0.0238037	-0.0671387
-0.0436401	-0.0238037	-0.0674438
-0.0439453	-0.0241089	-0.0680542
-0.0448608	-0.0244141	-0.0692749
-0.0460815	-0.0250244	-0.071106
-0.0476074	-0.0259399	-0.0735474
-0.0488281	-0.0268555	-0.0756836
-0.0500488	-0.0280762	-0.078125
-0.0509644	-0.0292969	-0.0802612
-0.0515747	-0.0308228	-0.0823975
-0.0515747	-0.0317383	-0.083313
-0.0515747	-0.0323486	-0.0839233
-0.0518799	-0.032959	-0.0848389
-0.0521851	-0.0338745	-0.0860596
-0.0524902	-0.0344849	-0.0869751
-0.0527954	-0.03479	-0.0875854
-0.0521851	-0.0350952	-0.0872803
-0.0515747	-0.0354004	-0.0869751
-0.0509644	-0.0357056	-0.0866699
-0.0497437	-0.0360107	-0.0857544
-0.0491333	-0.0360107	-0.085144
-0.0491333	-0.0363159	-0.0854492
-0.0494385	-0.0369263	-0.0863647
-0.0494385	-0.0375366	-0.0869751
-0.0488281	-0.038147	-0.0869751
-0.0479126	-0.0384521	-0.0863647
-0.0466919	-0.0384521	-0.085144
-0.0463867	-0.0384521	-0.0848389
-0.0469971	-0.0384521	-0.0854492
-0.0479126	-0.038147	-0.0860596
-0.0479126	-0.038147	-0.0860596
-0.0463867	-0.0378418	-0.0842285
-0.0445557	-0.0372314	-0.0817871
-0.0430298	-0.0369263	-0.0799561
-0.0427246	-0.0363159	-0.0790405
-0.043335	-0.0366211	-0.0799561
-0.0439453	-0.0366211	-0.0805664
-0.0448608	-0.0369263	-0.0817871
-0.0454712	-0.0378418	-0.083313
-0.0460815	-0.0384521	-0.0845337
-0.0460815	-0.0393677	-0.0854492
-0.0466919	-0.0396729	-0.0863647
-0.0476074	-0.0402832	-0.0878906
-0.0479126	-0.0411987	-0.0891113
-0.0466919	-0.0421143	-0.0888062
-0.045166	-0.0427246	-0.0878906
-0.0439453	-0.0430298	-0.0869751
-0.0424194	-0.0430298	-0.0854492
-0.0408936	-0.0430298	-0.0839233
-0.0396729	-0.0436401	-0.083313
-0.0387573	-0.0439453	-0.0827026
-0.0384521	-0.0442505	-0.0827026
-0.0384521	-0.0448608	-0.083313
-0.0387573	-0.045166	-0.0839233
-0.0387573	-0.0457764	-0.0845337
-0.0387573	-0.0457764	-0.0845337
-0.0390625	-0.0457764	-0.0848389
-0.039978	-0.0460815	-0.0860596
-0.0405884	-0.0460815	-0.0866699
-0.0408936	-0.0463867	-0.0872803
-0.0415039	-0.0463867	-0.0878906
-0.0421143	-0.0466919	-0.0888062
-0.043335	-0.0469971	-0.090332
-0.045166	-0.0469971	-0.0921631
-0.0466919	-0.0469971	-0.093689
-0.0469971	-0.0469971	-0.0939941
-0.0463867	-0.0476074	-0.0939941
-0.0454712	-0.0479126	-0.0933838
-0.0442505	-0.0482178	-0.0924683
-0.043335	-0.0485229	-0.0918579
-0.0411987	-0.0491333	-0.090332
-0.038147	-0.0494385	-0.0875854
-0.0354004	-0.0494385	-0.0848389
-0.0332642	-0.0494385	-0.0827026
-0.0320435	-0.0491333	-0.0811768
-0.0317383	-0.0488281	-0.0805664
-0.0317383	-0.0485229	-0.0802612
-0.0320435	-0.0482178	-0.0802612
-0.0332642	-0.0476074	-0.0808716
-0.0344849	-0.0469971	-0.0814819
-0.0341797	-0.0460815	-0.0802612
-0.0326538	-0.045166	-0.0778198
-0.0305176	-0.0442505	-0.0747681
-0.0280762	-0.0427246	-0.0708008
-0.0247192	-0.0405884	-0.0653076
-0.0204468	-0.0375366	-0.0579834
-0.0149536	-0.0335693	-0.0485229
-0.00946045	-0.0289917	-0.0384521
-0.00488281	-0.0234985	-0.0283813
-0.00152588	-0.017395	-0.0189209
0.000610352	-0.0112915	-0.0106812
0.00274658	-0.00549316	-0.00274658
0.00366211	-0.000610352	0.00305176
0.00366211	0.00335693	0.00701904
0.00213623	0.00640869	0.00854492
0.000305176	0.00854492	0.0088501
-0.000305176	0.00976563	0.00946045
0.000610352	0.010376	0.0109863
0.00244141	0.0100708	0.0125122
0.00518799	0.00946045	0.0146484
0.00854492	0.00823975	0.0167847
0.0140381	0.00701904	0.0210571
0.0216675	0.00610352	0.027771
0.0302124	0.00549316	0.0357056
0.0375366	0.00457764	0.0421143
0.043335	0.00366211	0.0469971
0.0479126	0.00152588	0.0494385
0.0515747	-0.00244141	0.0491333
0.0540161	-0.00793457	0.0460815
0.0549316	-0.0143433	0.0405884
0.0546265	-0.0213623	0.0332642
0.0527954	-0.0289917	0.0238037
0.0488281	-0.0369263	0.0119019
0.0439453	-0.0442505	-0.000305176
0.0390625	-0.0506592	-0.0115967
0.0338745	-0.0561523	-0.0222778
0.027771	-0.0610352	-0.0332642
0.0219727	-0.0650024	-0.0430298
0.015564	-0.0674438	-0.0518799
0.00823975	-0.0680542	-0.0598145
0.000610352	-0.067749	-0.0671387
-0.00671387	-0.0671387	-0.0738525
-0.0131226	-0.0668335	-0.0799561
-0.0189209	-0.0662231	-0.085144
-0.0241089	-0.0656128	-0.0897217
-0.0286865	-0.0653076	-0.0939941
-0.0320435	-0.0653076	-0.0973511
-0.0344849	-0.0656128	-0.100098
-0.0363159	-0.0662231	-0.102539
-0.0375366	-0.0665283	-0.104065
-0.0384521	-0.0665283	-0.10498
-0.0396729	-0.0668335	-0.106506
-0.0411987	-0.0674438	-0.108643
-0.0430298	-0.0680542	-0.111084
-0.045166	-0.0683594	-0.113525
-0.0460815	-0.0686646	-0.114746
-0.0460815	-0.0689697	-0.115051
-0.0457764	-0.0695801	-0.115356
-0.0463867	-0.0698853	-0.116272
-0.0463867	-0.0701904	-0.116577
-0.0448608	-0.0704956	-0.115356
-0.043335	-0.071106	-0.114441
-0.0424194	-0.071106	-0.113525
-0.0415039	-0.0714111	-0.112915
-0.0396729	-0.0714111	-0.111084
-0.038147	-0.071106	-0.109253
-0.0369263	-0.071106	-0.108032
-0.0363159	-0.071106	-0.107422
-0.0360107	-0.071106	-0.107117
-0.0360107	-0.071106	-0.107117
-0.0360107	-0.071106	-0.107117
-0.0360107	-0.071106	-0.107117
-0.0369263	-0.0714111	-0.108337
-0.038147	-0.0717163	-0.109863
-0.0393677	-0.0723267	-0.111694
-0.0408936	-0.072937	-0.113831
-0.0421143	-0.0732422	-0.115356
-0.0430298	-0.0735474	-0.116577
-0.0430298	-0.0741577	-0.117188
-0.0430298	-0.0738525	-0.116882
-0.0421143	-0.0738525	-0.115967
-0.0418091	-0.0732422	-0.115051
-0.0408936	-0.072937	-0.113831
-0.0390625	-0.0726318	-0.111694
-0.0366211	-0.0723267	-0.108948
-0.0344849	-0.0717163	-0.106201
-0.0338745	-0.071106	-0.10498
-0.0332642	-0.0701904	-0.103455
-0.032959	-0.0692749	-0.102234
-0.0332642	-0.0686646	-0.101929
-0.032959	-0.0683594	-0.101318
-0.0332642	-0.0680542	-0.101318
-0.03479	-0.0671387	-0.101929
-0.0366211	-0.065918	-0.102539
-0.0387573	-0.0640869	-0.102844
-0.0402832	-0.0619507	-0.102234
-0.0415039	-0.0582886	-0.0997925
-0.0418091	-0.0518799	-0.093689
-0.0396729	-0.043335	-0.0830078
-0.03479	-0.032959	-0.067749
-0.0280762	-0.0201416	-0.0482178
-0.0195313	-0.00518799	-0.0247192
-0.00793457	0.0100708	0.00213623
0.00946045	0.0231934	0.0326538
0.032959	0.032959	0.065918
0.0622559	0.038147	0.100403
0.0967407	0.0378418	0.134583
0.137634	0.0317383	0.169373
0.184021	0.0198364	0.203857
0.233765	0.00305176	0.236816
0.285645	-0.0234985	0.262146
0.338135	-0.0646973	0.273438
0.387878	-0.119019	0.26886
0.429382	-0.179443	0.249939
0.456848	-0.240479	0.21637
0.466003	-0.299377	0.166626
0.454407	-0.352478	0.101929
0.422058	-0.396118	0.0259399
0.370178	-0.426025	-0.0558472
0.301514	-0.437927	-0.136414
0.220947	-0.429077	-0.20813
0.135803	-0.39978	-0.263977
0.0531006	-0.353088	-0.299988
-0.0201416	-0.293884	-0.314026
-0.0790405	-0.228577	-0.307617
-0.119934	-0.16449	-0.284424
-0.141296	-0.107117	-0.248413
-0.144653	-0.06073	-0.205383
-0.132446	-0.0283813	-0.160828
-0.109863	-0.010376	-0.120239
-0.0823975	-0.00518799	-0.0875854
-0.0543213	-0.010376	-0.0646973
-0.0299072	-0.0222778	-0.0521851
-0.0119019	-0.0366211	-0.0485229
-0.00152588	-0.0497437	-0.0512695
0.00274658	-0.0601196	-0.057373
0.00213623	-0.0665283	-0.0643921
-0.00183105	-0.0686646	-0.0704956
-0.00732422	-0.067749	-0.0750732
-0.0131226	-0.0643921	-0.0775146
-0.0180054	-0.0604248	-0.0784302
-0.020752	-0.0561523	-0.0769043
-0.0210571	-0.0531006	-0.0741577
-0.0198364	-0.0506592	-0.0704956
-0.0183105	-0.0488281	-0.0671387
-0.0170898	-0.0479126	-0.0650024
-0.0167847	-0.0473022	-0.0640869
-0.0164795	-0.0473022	-0.0637817
-0.0164795	-0.0469971	-0.0634766
-0.0158691	-0.0466919	-0.062561
-0.0146484	-0.0469971	-0.0616455
-0.0134277	-0.0466919	-0.0601196
-0.012207	-0.0460815	-0.0582886
-0.0109863	-0.045166	-0.0561523
-0.00946045	-0.0448608	-0.0543213
-0.00701904	-0.0448608	-0.0518799
-0.00457764	-0.045166	-0.0497437
-0.00213623	-0.045166	-0.0473022
0.000305176	-0.0454712	-0.045166
0.00152588	-0.0460815	-0.0445557
0.00152588	-0.0463867	-0.0448608
0.0012207	-0.0466919	-0.0454712
0.00152588	-0.0469971	-0.0454712
0.00152588	-0.0473022	-0.0457764
0.0012207	-0.0479126	-0.0466919
0.000915527	-0.0482178	-0.0473022
0.0012207	-0.0485229	-0.0473022
0.00152588	-0.0479126	-0.0463867
0.00274658	-0.0469971	-0.0442505
0.00457764	-0.0460815	-0.0415039
0.00671387	-0.0448608	-0.038147
0.00823975	-0.043335	-0.0350952
0.010376	-0.0421143	-0.0317383
0.0131226	-0.0408936	-0.027771
0.015564	-0.039978	-0.0244141
0.017395	-0.0393677	-0.0219727
0.0186157	-0.0387573	-0.0201416
0.0198364	-0.0390625	-0.0192261
0.020752	-0.039978	-0.0192261
0.0213623	-0.0411987	-0.0198364
0.0219727	-0.0427246	-0.020752
0.0216675	-0.0439453	-0.0222778
0.020752	-0.045166	-0.0244141
0.0201416	-0.0457764	-0.0256348
0.020752	-0.0460815	-0.0253296
0.0219727	-0.0463867	-0.0244141
0.0234985	-0.0466919	-0.0231934
0.0250244	-0.0469971	-0.0219727
0.0262451	-0.0463867	-0.0201416
0.0283813	-0.0454712	-0.0170898
0.0317383	-0.0448608	-0.0131226
0.0350952	-0.0445557	-0.00946045
0.038147	-0.0445557	-0.00640869
0.0408936	-0.0448608	-0.00396729
0.0430298	-0.045166	-0.00213623
0.0442505	-0.045166	-0.000915527
0.0445557	-0.0454712	-0.000915527
0.0457764	-0.0454712	0.000305176
0.0476074	-0.0460815	0.00152588
0.0497437	-0.0466919	0.00305176
0.0521851	-0.0473022	0.00488281
0.0549316	-0.0479126	0.00701904
0.0576782	-0.0482178	0.00946045
0.06073	-0.0485229	0.012207
0.0646973	-0.0488281	0.0158691
0.0692749	-0.0494385	0.0198364
0.0738525	-0.0497437	0.0241089
0.0778198	-0.0500488	0.027771
0.0802612	-0.050354	0.0299072
0.0820923	-0.0506592	0.0314331
0.0845337	-0.0509644	0.0335693
0.0866699	-0.0515747	0.0350952
0.088501	-0.0521851	0.0363159
0.0906372	-0.0524902	0.038147
0.0933838	-0.0531006	0.0402832
0.0961304	-0.0534058	0.0427246
0.0991821	-0.0540161	0.045166
0.103455	-0.0546265	0.0488281
0.108948	-0.0552368	0.0537109
0.115051	-0.0558472	0.0592041
0.12146	-0.0561523	0.0653076
0.127563	-0.0567627	0.0708008
0.133667	-0.0579834	0.0756836
0.139465	-0.0592041	0.0802612
0.144958	-0.0610352	0.0839233
0.150146	-0.0628662	0.0872803
0.15564	-0.0650024	0.0906372
0.161438	-0.0671387	0.0942993
0.167542	-0.0692749	0.0982666
0.173645	-0.071106	0.102539
0.179443	-0.072937	0.106506
0.184937	-0.0744629	0.110474
0.189819	-0.0756836	0.114136
0.195313	-0.0765991	0.118713
0.201416	-0.0778198	0.123596
0.20752	-0.0787354	0.128784
0.212708	-0.0793457	0.133362
0.217896	-0.0802612	0.137634
0.223694	-0.0814819	0.142212
0.229797	-0.0830078	0.14679
0.235901	-0.0842285	0.151672
0.241699	-0.0854492	0.15625
0.248413	-0.0866699	0.161743
0.254822	-0.0878906	0.166931
0.260925	-0.0891113	0.171814
0.266113	-0.0900269	0.176086
0.270691	-0.0906372	0.180054
0.274353	-0.0912476	0.183105
0.276794	-0.0918579	0.184937
0.278015	-0.0921631	0.185852
0.277405	-0.0918579	0.185547
0.276184	-0.0909424	0.185242
0.274658	-0.0897217	0.184937
0.273438	-0.0875854	0.185852
0.272522	-0.0845337	0.187988
0.270081	-0.0805664	0.189514
0.265503	-0.0759888	0.189514
0.26001	-0.0708008	0.189209
0.253296	-0.0650024	0.188293
0.246277	-0.0585938	0.187683
0.238342	-0.0521851	0.186157
0.229187	-0.0457764	0.183411
0.218201	-0.0396729	0.178528
0.204773	-0.0332642	0.171509
0.189514	-0.0265503	0.162964
0.172729	-0.020752	0.151978
0.155945	-0.0152588	0.140686
0.139465	-0.010376	0.129089
0.122375	-0.00579834	0.116577
0.105286	-0.0012207	0.104065
0.088501	0.00274658	0.0912476
0.0723267	0.00701904	0.0793457
0.057373	0.0106812	0.0680542
0.043335	0.0137329	0.0570679
0.0302124	0.0161743	0.0463867
0.0183105	0.0183105	0.0366211
0.00732422	0.0198364	0.0271606
-0.00335693	0.020752	0.017395
-0.0125122	0.020752	0.00823975
-0.0198364	0.0201416	0.000305176
-0.0259399	0.0192261	-0.00671387
-0.0314331	0.0183105	-0.0131226
-0.0366211	0.0167847	-0.0198364
-0.0411987	0.0152588	-0.0259399
-0.0442505	0.0134277	-0.0308228
-0.0460815	0.0112915	-0.03479
-0.0479126	0.00976563	-0.038147
-0.0506592	0.0088501	-0.0418091
-0.0546265	0.00823975	-0.0463867
-0.0595093	0.00762939	-0.0518799
-0.0628662	0.00701904	-0.0558472
-0.0643921	0.00610352	-0.0582886
-0.065918	0.00549316	-0.0604248
-0.0680542	0.00549316	-0.062561
-0.0701904	0.00549316	-0.0646973
-0.0717163	0.00549316	-0.0662231
-0.0717163	0.00549316	-0.0662231
-0.071106	0.00549316	-0.0656128
-0.071106	0.00610352	-0.0650024
-0.0714111	0.00610352	-0.0653076
-0.0723267	0.00579834	-0.0665283
-0.0726318	0.00549316	-0.0671387
-0.0726318	0.00518799	-0.0674438
-0.0732422	0.00457764	-0.0686646
-0.0744629	0.00366211	-0.0708008
-0.0747681	0.00305176	-0.0717163
-0.0741577	0.00244141	-0.0717163
-0.0732422	0.00213623	-0.071106
-0.0717163	0.00152588	-0.0701904
-0.0689697	0.000305176	-0.0686646
-0.0656128	-0.000915527	-0.0665283
-0.0622559	-0.00152588	-0.0637817
-0.0598145	-0.00213623	-0.0619507
-0.0579834	-0.00244141	-0.0604248
-0.0564575	-0.00305176	-0.0595093
-0.0552368	-0.00335693	-0.0585938
-0.0540161	-0.00366211	-0.0576782
-0.0534058	-0.00396729	-0.057373
-0.0537109	-0.00366211	-0.057373
-0.0546265	-0.00305176	-0.0576782
-0.0564575	-0.00213623	-0.0585938
-0.0582886	-0.0012207	-0.0595093
-0.0598145	-0.000305176	-0.0601196
-0.0610352	0	-0.0610352
-0.0613403	0.000305176	-0.0610352
-0.0604248	0.000610352	-0.0598145
-0.0588989	0.000305176	-0.0585938
-0.0570679	0.000305176	-0.0567627
-0.0552368	0	-0.0552368
-0.0531006	-0.000610352	-0.0537109
-0.0509644	-0.000610352	-0.0515747
-0.0488281	-0.000610352	-0.0494385
-0.0466919	-0.000915527	-0.0476074
-0.045166	-0.00152588	-0.0466919
-0.0442505	-0.00183105	-0.0460815
-0.0442505	-0.00244141	-0.0466919
-0.0445557	-0.00305176	-0.0476074
-0.0454712	-0.00396729	-0.0494385
-0.0460815	-0.00518799	-0.0512695
-0.0463867	-0.00640869	-0.0527954
-0.0460815	-0.00762939	-0.0537109
-0.0460815	-0.00854492	-0.0546265
-0.0457764	-0.00915527	-0.0549316
-0.0448608	-0.00976563	-0.0546265
-0.0445557	-0.00976563	-0.0543213
-0.0448608	-0.00915527	-0.0540161
-0.0454712	-0.00854492	-0.0540161
-0.0466919	-0.00793457	-0.0546265
-0.0485229	-0.00701904	-0.055542
-0.0497437	-0.00610352	-0.0558472
-0.0506592	-0.00518799	-0.0558472
-0.0509644	-0.00518799	-0.0561523
-0.0509644	-0.00488281	-0.0558472
-0.0512695	-0.00457764	-0.0558472
-0.0506592	-0.00457764	-0.0552368
-0.0488281	-0.00488281	-0.0537109
-0.0463867	-0.00579834	-0.0521851
-0.0439453	-0.00701904	-0.0509644
-0.0421143	-0.00793457	-0.0500488
-0.0408936	-0.00823975	-0.0491333
-0.0405884	-0.00793457	-0.0485229
-0.0415039	-0.00732422	-0.0488281
-0.0430298	-0.00671387	-0.0497437
-0.045166	-0.00610352	-0.0512695
-0.0479126	-0.00518799	-0.0531006
-0.050354	-0.00427246	-0.0546265
-0.0518799	-0.00274658	-0.0546265
-0.0531006	-0.00152588	-0.0546265
-0.0537109	-0.000915527	-0.0546265
-0.0540161	-0.0012207	-0.0552368
-0.0534058	-0.00152588	-0.0549316
-0.0527954	-0.00213623	-0.0549316
-0.0527954	-0.00305176	-0.0558472
-0.0531006	-0.00366211	-0.0567627
-0.0540161	-0.00457764	-0.0585938
-0.0543213	-0.00579834	-0.0601196
-0.0546265	-0.00701904	-0.0616455
-0.055542	-0.00793457	-0.0634766
-0.0567627	-0.0088501	-0.0656128
-0.057373	-0.00915527	-0.0665283
-0.057373	-0.00946045	-0.0668335
-0.0564575	-0.00976563	-0.0662231
-0.0543213	-0.010376	-0.0646973
-0.0521851	-0.0112915	-0.0634766
-0.0509644	-0.0115967	-0.062561
-0.0506592	-0.0119019	-0.062561
-0.050354	-0.012207	-0.062561
-0.050354	-0.0125122	-0.0628662
-0.0506592	-0.0131226	-0.0637817
-0.0509644	-0.0137329	-0.0646973
-0.0515747	-0.0140381	-0.0656128
-0.0521851	-0.0146484	-0.0668335
-0.0527954	-0.0149536	-0.067749
-0.0534058	-0.0149536	-0.0683594
-0.0527954	-0.0149536	-0.067749
-0.0518799	-0.0149536	-0.0668335
-0.0515747	-0.0149536	-0.0665283
-0.0515747	-0.0146484	-0.0662231
-0.0515747	-0.0146484	-0.0662231
-0.0515747	-0.0149536	-0.0665283
-0.0518799	-0.0152588	-0.0671387
-0.0524902	-0.015564	-0.0680542
-0.0534058	-0.0158691	-0.0692749
-0.0543213	-0.0164795	-0.0708008
-0.055542	-0.0170898	-0.0726318
-0.0561523	-0.0177002	-0.0738525
-0.057373	-0.0183105	-0.0756836
-0.0585938	-0.0189209	-0.0775146
-0.0582886	-0.0192261	-0.0775146
-0.0567627	-0.0195313	-0.0762939
-0.0549316	-0.0192261	-0.0741577
-0.0534058	-0.0189209	-0.0723267
-0.0518799	-0.0186157	-0.0704956
-0.0497437	-0.0183105	-0.0680542
-0.0476074	-0.0177002	-0.0653076
-0.0460815	-0.017395	-0.0634766
-0.0454712	-0.0167847	-0.0622559
-0.0445557	-0.0164795	-0.0610352
-0.0439453	-0.0158691	-0.0598145
-0.0436401	-0.0152588	-0.0588989
-0.0439453	-0.0143433	-0.0582886
-0.0445557	-0.0134277	-0.0579834
-0.045166	-0.0131226	-0.0582886
-0.045166	-0.0131226	-0.0582886
-0.0448608	-0.0128174	-0.0576782
-0.0448608	-0.0125122	-0.057373
-0.0442505	-0.012207	-0.0564575
-0.043335	-0.0119019	-0.0552368
-0.0436401	-0.0115967	-0.0552368
-0.045166	-0.0115967	-0.0567627
-0.0463867	-0.0112915	-0.0576782
-0.0463867	-0.0115967	-0.0579834
-0.0460815	-0.0115967	-0.0576782
-0.0457764	-0.0115967	-0.057373
-0.0457764	-0.012207	-0.0579834
-0.0454712	-0.0125122	-0.0579834
-0.0442505	-0.0128174	-0.0570679
-0.0421143	-0.0131226	-0.0552368
-0.0396729	-0.0137329	-0.0534058
-0.0369263	-0.0149536	-0.0518799
-0.0344849	-0.0161743	-0.0506592
-0.0332642	-0.0170898	-0.050354
-0.032959	-0.0177002	-0.0506592
-0.032959	-0.0180054	-0.0509644
-0.032959	-0.0180054	-0.0509644
-0.032959	-0.0177002	-0.0506592
-0.032959	-0.017395	-0.050354
-0.0332642	-0.0170898	-0.050354
-0.0338745	-0.0167847	-0.0506592
-0.03479	-0.0164795	-0.0512695
-0.0360107	-0.0158691	-0.0518799
-0.0369263	-0.0152588	-0.0521851
-0.0375366	-0.0149536	-0.0524902
-0.0378418	-0.0143433	-0.0521851
-0.0378418	-0.0143433	-0.0521851
-0.038147	-0.0146484	-0.0527954
-0.0387573	-0.0149536	-0.0537109
-0.0393677	-0.0149536	-0.0543213
-0.0387573	-0.0146484	-0.0534058
-0.038147	-0.0146484	-0.0527954
-0.0378418	-0.0143433	-0.0521851
-0.0375366	-0.0140381	-0.0515747
-0.0372314	-0.0134277	-0.0506592
-0.0363159	-0.0131226	-0.0494385
-0.0357056	-0.0125122	-0.0482178
-0.0350952	-0.0125122	-0.0476074
-0.0344849	-0.0125122	-0.0469971
-0.0341797	-0.0131226	-0.0473022
-0.0341797	-0.0134277	-0.0476074
-0.0344849	-0.0140381	-0.0485229
-0.0350952	-0.0146484	-0.0497437
-0.03479	-0.0152588	-0.0500488
-0.0344849	-0.0158691	-0.050354
-0.03479	-0.0164795	-0.0512695
-0.0354004	-0.0167847	-0.0521851
-0.0360107	-0.0164795	-0.0524902
-0.0366211	-0.0161743	-0.0527954
-0.0372314	-0.0152588	-0.0524902
-0.0375366	-0.0146484	-0.0521851
-0.0369263	-0.0143433	-0.0512695
-0.0363159	-0.0143433	-0.0506592
-0.0357056	-0.0140381	-0.0497437
-0.0354004	-0.0134277	-0.0488281
-0.03479	-0.0134277	-0.0482178
-0.0335693	-0.0140381	-0.0476074
-0.0326538	-0.0143433	-0.0469971
-0.0314331	-0.0149536	-0.0463867
-0.0302124	-0.0152588	-0.0454712
-0.0296021	-0.015564	-0.045166
-0.0299072	-0.015564	-0.0454712
-0.0305176	-0.015564	-0.0460815
-0.0308228	-0.015564	-0.0463867
-0.0308228	-0.0149536	-0.0457764
-0.0311279	-0.0137329	-0.0448608
-0.0320435	-0.0125122	-0.0445557
-0.0335693	-0.012207	-0.0457764
-0.0354004	-0.0115967	-0.0469971
-0.0357056	-0.0109863	-0.0466919
-0.0341797	-0.010376	-0.0445557
-0.0317383	-0.00976563	-0.0415039
-0.0283813	-0.00946045	-0.0378418
-0.0244141	-0.00915527	-0.0335693
-0.020752	-0.00854492	-0.0292969
-0.0167847	-0.00762939	-0.0244141
-0.0125122	-0.00610352	-0.0186157
-0.00823975	-0.00335693	-0.0115967
-0.00396729	0.000610352	-0.00335693
0	0.00579834	0.00579834
0.00274658	0.0112915	0.0140381
0.00427246	0.0177002	0.0219727
0.00549316	0.0238037	0.0292969
0.00671387	0.0296021	0.0363159
0.00793457	0.0344849	0.0424194
0.00946045	0.0384521	0.0479126
0.0106812	0.0418091	0.0524902
0.0106812	0.0442505	0.0549316
0.010376	0.0457764	0.0561523
0.0109863	0.0463867	0.057373
0.0131226	0.0463867	0.0595093
0.0170898	0.0454712	0.062561
0.0216675	0.0445557	0.0662231
0.0271606	0.043335	0.0704956
0.0326538	0.0421143	0.0747681
0.038147	0.0411987	0.0793457
0.0439453	0.0405884	0.0845337
0.0497437	0.0393677	0.0891113
0.055542	0.0372314	0.0927734
0.0604248	0.0335693	0.0939941
0.0631714	0.0286865	0.0918579
0.0637817	0.0231934	0.0869751
0.0631714	0.0170898	0.0802612
0.0613403	0.0100708	0.0714111
0.0588989	0.00244141	0.0613403
0.0561523	-0.00488281	0.0512695
0.0524902	-0.0115967	0.0408936
0.0491333	-0.017395	0.0317383
0.045166	-0.0222778	0.0228882
0.0402832	-0.0259399	0.0143433
0.03479	-0.0283813	0.00640869
0.0286865	-0.0296021	-0.000915527
0.0213623	-0.0292969	-0.00793457
0.0137329	-0.0280762	-0.0143433
0.00640869	-0.0262451	-0.0198364
-0.000915527	-0.0247192	-0.0256348
-0.00793457	-0.0241089	-0.0320435
-0.0125122	-0.0238037	-0.0363159
-0.015564	-0.0238037	-0.0393677
-0.0186157	-0.0238037	-0.0424194
-0.0213623	-0.0241089	-0.0454712
-0.0241089	-0.0247192	-0.0488281
-0.0253296	-0.0256348	-0.0509644
-0.0253296	-0.0268555	-0.0521851
-0.0256348	-0.027771	-0.0534058
-0.027771	-0.0286865	-0.0564575
-0.0299072	-0.0296021	-0.0595093
-0.0317383	-0.0299072	-0.0616455
-0.032959	-0.0302124	-0.0631714
-0.0326538	-0.0308228	-0.0634766
-0.0320435	-0.0317383	-0.0637817
-0.0314331	-0.0320435	-0.0634766
-0.0314331	-0.0317383	-0.0631714
-0.0311279	-0.0311279	-0.0622559
-0.0305176	-0.0305176	-0.0610352
-0.0292969	-0.0302124	-0.0595093
-0.0286865	-0.0296021	-0.0582886
-0.0286865	-0.0289917	-0.0576782
-0.0296021	-0.0280762	-0.0576782
-0.0305176	-0.0274658	-0.0579834
-0.0311279	-0.0268555	-0.0579834
-0.0314331	-0.0265503	-0.0579834
-0.0320435	-0.0262451	-0.0582886
-0.032959	-0.0262451	-0.0592041
-0.0335693	-0.0262451	-0.0598145
-0.0338745	-0.0265503	-0.0604248
-0.0341797	-0.0265503	-0.06073
-0.0350952	-0.0268555	-0.0619507
-0.0357056	-0.0271606	-0.0628662
-0.0354004	-0.0274658	-0.0628662
-0.0360107	-0.027771	-0.0637817
-0.0369263	-0.027771	-0.0646973
-0.0372314	-0.0280762	-0.0653076
-0.0360107	-0.0283813	-0.0643921
-0.03479	-0.0283813	-0.0631714
-0.0332642	-0.0286865	-0.0619507
-0.0323486	-0.0292969	-0.0616455
-0.0323486	-0.0296021	-0.0619507
-0.0317383	-0.0299072	-0.0616455
-0.0308228	-0.0302124	-0.0610352
-0.0311279	-0.0305176	-0.0616455
-0.0323486	-0.0308228	-0.0631714
-0.0338745	-0.0308228	-0.0646973
-0.0341797	-0.0311279	-0.0653076
-0.0332642	-0.0317383	-0.0650024
-0.0320435	-0.0320435	-0.0640869
-0.0317383	-0.0323486	-0.0640869
-0.0317383	-0.0320435	-0.0637817
-0.0314331	-0.0308228	-0.0622559
-0.0305176	-0.0286865	-0.0592041
-0.0289917	-0.0253296	-0.0543213
-0.0280762	-0.0201416	-0.0482178
-0.0274658	-0.012207	-0.0396729
-0.0262451	-0.00213623	-0.0283813
-0.022583	0.00976563	-0.0128174
-0.0170898	0.0244141	0.00732422
-0.00854492	0.0396729	0.0311279
0.00488281	0.0531006	0.0579834
0.0250244	0.0634766	0.088501
0.0524902	0.0695801	0.12207
0.0863647	0.0692749	0.15564
0.127258	0.0619507	0.189209
0.175781	0.0488281	0.224609
0.228577	0.0317383	0.260315
0.283813	0.00701904	0.290833
0.340576	-0.0305176	0.310059
0.396423	-0.0823975	0.314026
0.446472	-0.144043	0.302429
0.484009	-0.20813	0.275879
0.503845	-0.270081	0.233765
0.502319	-0.326843	0.175476
0.4776	-0.374146	0.103455
0.431213	-0.408936	0.0222778
0.366821	-0.426331	-0.0595093
0.287781	-0.422974	-0.135193
0.199585	-0.397644	-0.198059
0.109253	-0.352478	-0.243225
0.0250244	-0.292053	-0.267029
-0.0463867	-0.222778	-0.269165
-0.100098	-0.152283	-0.25238
-0.133667	-0.0878906	-0.221558
-0.146179	-0.0344849	-0.180664
-0.140076	0.00457764	-0.135498
-0.120544	0.0280762	-0.0924683
-0.0927734	0.0369263	-0.0558472
-0.0613403	0.0335693	-0.027771
-0.0305176	0.0213623	-0.00915527
-0.00488281	0.00549316	0.000610352
0.0128174	-0.010376	0.00244141
0.0219727	-0.0231934	-0.0012207
0.0238037	-0.0311279	-0.00732422
0.020752	-0.0341797	-0.0134277
0.0152588	-0.032959	-0.0177002
0.00915527	-0.0289917	-0.0198364
0.00305176	-0.0244141	-0.0213623
-0.00213623	-0.0195313	-0.0216675
-0.00579834	-0.0158691	-0.0216675
-0.00793457	-0.0134277	-0.0213623
-0.00854492	-0.012207	-0.020752
-0.0088501	-0.012207	-0.0210571
-0.0088501	-0.0125122	-0.0213623
-0.00946045	-0.0134277	-0.0228882
-0.0106812	-0.0143433	-0.0250244
-0.0119019	-0.0152588	-0.0271606
-0.0128174	-0.0158691	-0.0286865
-0.0128174	-0.0158691	-0.0286865
-0.0109863	-0.0161743	-0.0271606
-0.00793457	-0.0167847	-0.0247192
-0.00457764	-0.0170898	-0.0216675
-0.000915527	-0.0177002	-0.0186157
0.00396729	-0.0180054	-0.0140381
0.00854492	-0.0186157	-0.0100708
0.0128174	-0.0189209	-0.00610352
0.0161743	-0.0192261	-0.00305176
0.0180054	-0.0195313	-0.00152588
0.0186157	-0.0192261	-0.000610352
0.0195313	-0.0192261	0.000305176
0.0189209	-0.0186157	0.000305176
0.017395	-0.0180054	-0.000610352
0.0152588	-0.017395	-0.00213623
0.0131226	-0.0170898	-0.00396729
0.012207	-0.0170898	-0.00488281
0.0125122	-0.017395	-0.00488281
0.0140381	-0.0177002	-0.00366211
0.0164795	-0.0180054	-0.00152588
0.0183105	-0.0177002	0.000610352
0.0204468	-0.0177002	0.00274658
0.0228882	-0.0180054	0.00488281
0.0256348	-0.0183105	0.00732422
0.0280762	-0.0183105	0.00976563
0.0308228	-0.0183105	0.0125122
0.0335693	-0.0186157	0.0149536
0.0354004	-0.0192261	0.0161743
0.0363159	-0.0195313	0.0167847
0.0363159	-0.0195313	0.0167847
0.0363159	-0.0201416	0.0161743
0.0378418	-0.0213623	0.0164795
0.039978	-0.022583	0.017395
0.0415039	-0.0231934	0.0183105
0.0421143	-0.0238037	0.0183105
0.0421143	-0.0238037	0.0183105
0.0424194	-0.0238037	0.0186157
0.0442505	-0.0241089	0.0201416
0.0466919	-0.0244141	0.0222778
0.0485229	-0.0247192	0.0238037
0.0494385	-0.0247192	0.0247192
0.0506592	-0.0250244	0.0256348
0.0527954	-0.0250244	0.027771
0.055542	-0.0253296	0.0302124
0.0585938	-0.0256348	0.032959
0.06073	-0.0259399	0.03479
0.0622559	-0.0259399	0.0363159
0.0640869	-0.0256348	0.0384521
0.0668335	-0.0256348	0.0411987
0.0704956	-0.0253296	0.045166
0.0738525	-0.0253296	0.0485229
0.0765991	-0.0256348	0.0509644
0.0784302	-0.0256348	0.0527954
0.0796509	-0.0256348	0.0540161
0.0808716	-0.0262451	0.0546265
0.083313	-0.0268555	0.0564575
0.0872803	-0.027771	0.0595093
0.0918579	-0.0289917	0.0628662
0.0958252	-0.0296021	0.0662231
0.0991821	-0.0302124	0.0689697
0.101929	-0.0311279	0.0708008
0.10376	-0.0326538	0.071106
0.106812	-0.0341797	0.0726318
0.111389	-0.0357056	0.0756836
0.116577	-0.0372314	0.0793457
0.12207	-0.0387573	0.083313
0.127258	-0.0408936	0.0863647
0.132751	-0.0424194	0.090332
0.137939	-0.0442505	0.093689
0.143127	-0.0457764	0.0973511
0.148315	-0.0469971	0.101318
0.153809	-0.0482178	0.105591
0.158997	-0.0494385	0.109558
0.164185	-0.0506592	0.113525
0.168152	-0.0518799	0.116272
0.170898	-0.0537109	0.117188
0.173645	-0.0558472	0.117798
0.177612	-0.0582886	0.119324
0.182495	-0.06073	0.121765
0.187683	-0.0634766	0.124207
0.193176	-0.0656128	0.127563
0.198669	-0.0674438	0.131226
0.204468	-0.0689697	0.135498
0.210876	-0.0708008	0.140076
0.21759	-0.0723267	0.145264
0.223999	-0.0738525	0.150146
0.230408	-0.0747681	0.15564
0.236816	-0.0756836	0.161133
0.24353	-0.0765991	0.166931
0.250549	-0.0778198	0.172729
0.256958	-0.0793457	0.177612
0.263672	-0.0805664	0.183105
0.269775	-0.0820923	0.187683
0.275574	-0.083313	0.192261
0.281067	-0.0845337	0.196533
0.286255	-0.0854492	0.200806
0.290833	-0.0860596	0.204773
0.294495	-0.0863647	0.20813
0.297241	-0.0863647	0.210876
0.299072	-0.0857544	0.213318
0.300598	-0.085144	0.215454
0.302429	-0.0842285	0.218201
0.303345	-0.0830078	0.220337
0.30304	-0.0811768	0.221863
0.300903	-0.0790405	0.221863
0.296631	-0.0762939	0.220337
0.291138	-0.072937	0.218201
0.285645	-0.0692749	0.21637
0.278931	-0.0646973	0.214233
0.270386	-0.0595093	0.210876
0.260925	-0.0537109	0.207214
0.250549	-0.0469971	0.203552
0.238953	-0.0396729	0.19928
0.226746	-0.0320435	0.194702
0.213928	-0.0244141	0.189514
0.200806	-0.0164795	0.184326
0.186768	-0.0088501	0.177917
0.171814	-0.00152588	0.170288
0.155334	0.00518799	0.160522
0.137329	0.0112915	0.148621
0.119324	0.0161743	0.135498
0.101929	0.020752	0.122681
0.0854492	0.0247192	0.110168
0.0701904	0.0271606	0.0973511
0.055542	0.0292969	0.0848389
0.0418091	0.0305176	0.0723267
0.0296021	0.0317383	0.0613403
0.0186157	0.032959	0.0515747
0.00915527	0.0335693	0.0427246
0.000610352	0.0338745	0.0344849
-0.00793457	0.0338745	0.0259399
-0.0158691	0.0341797	0.0183105
-0.0231934	0.0341797	0.0109863
-0.0299072	0.0344849	0.00457764
-0.0363159	0.0344849	-0.00183105
-0.0427246	0.0341797	-0.00854492
-0.0479126	0.0341797	-0.0137329
-0.0512695	0.0338745	-0.017395
-0.0531006	0.0335693	-0.0195313
-0.0543213	0.0332642	-0.0210571
-0.055542	0.032959	-0.022583
-0.0567627	0.0326538	-0.0241089
-0.0576782	0.0323486	-0.0253296
-0.0582886	0.0320435	-0.0262451
-0.0592041	0.0317383	-0.0274658
-0.0604248	0.0314331	-0.0289917
-0.062561	0.0311279	-0.0314331
-0.0653076	0.0311279	-0.0341797
-0.0686646	0.0308228	-0.0378418
-0.0714111	0.0302124	-0.0411987
-0.0726318	0.0296021	-0.0430298
-0.072937	0.0289917	-0.0439453
-0.072937	0.0286865	-0.0442505
-0.0732422	0.0286865	-0.0445557
-0.072937	0.0286865	-0.0442505
-0.0720215	0.0289917	-0.0430298
-0.0701904	0.0286865	-0.0415039
-0.0692749	0.0280762	-0.0411987
-0.0692749	0.027771	-0.0415039
-0.0689697	0.027771	-0.0411987
-0.067749	0.0271606	-0.0405884
-0.0662231	0.0262451	-0.039978
-0.0650024	0.0256348	-0.0393677
-0.0637817	0.0250244	-0.0387573
-0.0622559	0.0244141	-0.0378418
-0.0601196	0.0241089	-0.0360107
-0.0592041	0.0244141	-0.03479
-0.0585938	0.0247192	-0.0338745
-0.057373	0.0247192	-0.0326538
-0.0552368	0.0247192	-0.0305176
-0.0543213	0.0250244	-0.0292969
-0.0540161	0.0253296	-0.0286865
-0.0549316	0.0250244	-0.0299072
-0.0567627	0.0247192	-0.0320435
-0.0579834	0.0238037	-0.0341797
-0.057373	0.0234985	-0.0338745
-0.0561523	0.0228882	-0.0332642
-0.0546265	0.022583	-0.0320435
-0.0537109	0.0222778	-0.0314331
-0.0537109	0.0222778	-0.0314331
-0.0540161	0.0222778	-0.0317383
-0.0537109	0.022583	-0.0311279
-0.0534058	0.0228882	-0.0305176
-0.0527954	0.0231934	-0.0296021
-0.0515747	0.0231934	-0.0283813
-0.050354	0.0228882	-0.0274658
-0.0494385	0.0228882	-0.0265503
-0.0488281	0.022583	-0.0262451
-0.0488281	0.0219727	-0.0268555
-0.0497437	0.0216675	-0.0280762
-0.0497437	0.0213623	-0.0283813
-0.0485229	0.020752	-0.027771
-0.0466919	0.0204468	-0.0262451
-0.0457764	0.0201416	-0.0256348
-0.0457764	0.0198364	-0.0259399
-0.0460815	0.0195313	-0.0265503
-0.0460815	0.0195313	-0.0265503
-0.0457764	0.0198364	-0.0259399
-0.0454712	0.0204468	-0.0250244
-0.0460815	0.0210571	-0.0250244
-0.0460815	0.0216675	-0.0244141
-0.0457764	0.0219727	-0.0238037
-0.045166	0.0222778	-0.0228882
-0.045166	0.022583	-0.022583
-0.0448608	0.022583	-0.0222778
-0.0448608	0.0222778	-0.022583
-0.0448608	0.022583	-0.0222778
-0.0445557	0.022583	-0.0219727
-0.0445557	0.0222778	-0.0222778
-0.0457764	0.0216675	-0.0241089
-0.0473022	0.0213623	-0.0259399
-0.0482178	0.0213623	-0.0268555
-0.0485229	0.0213623	-0.0271606
-0.0488281	0.0210571	-0.027771
-0.0497437	0.020752	-0.0289917
-0.0500488	0.0204468	-0.0296021
-0.0506592	0.0201416	-0.0305176
-0.0509644	0.0198364	-0.0311279
-0.0506592	0.0192261	-0.0314331
-0.0500488	0.0192261	-0.0308228
-0.0500488	0.0192261	-0.0308228
-0.050354	0.0195313	-0.0308228
-0.050354	0.0195313	-0.0308228
-0.0500488	0.0192261	-0.0308228
-0.0497437	0.0192261	-0.0305176
-0.0500488	0.0192261	-0.0308228
-0.0518799	0.0192261	-0.0326538
-0.0537109	0.0192261	-0.0344849
-0.0537109	0.0192261	-0.0344849
-0.0531006	0.0189209	-0.0341797
-0.0527954	0.0186157	-0.0341797
-0.0527954	0.0183105	-0.0344849
-0.0524902	0.0180054	-0.0344849
-0.0521851	0.0177002	-0.0344849
-0.0521851	0.0180054	-0.0341797
-0.0518799	0.0177002	-0.0341797
-0.0515747	0.017395	-0.0341797
-0.0512695	0.0170898	-0.0341797
-0.050354	0.0164795	-0.0338745
-0.0491333	0.015564	-0.0335693
-0.0485229	0.0146484	-0.0338745
-0.0491333	0.0137329	-0.0354004
-0.050354	0.0128174	-0.0375366
-0.0512695	0.0119019	-0.0393677
-0.0512695	0.0109863	-0.0402832
-0.0509644	0.0100708	-0.0408936
-0.0512695	0.00946045	-0.0418091
-0.0518799	0.00915527	-0.0427246
-0.0524902	0.00915527	-0.043335
-0.0527954	0.00946045	-0.043335
-0.0527954	0.00946045	-0.043335
-0.0537109	0.00915527	-0.0445557
-0.0549316	0.00915527	-0.0457764
-0.0561523	0.00915527	-0.0469971
-0.0564575	0.0088501	-0.0476074
-0.0558472	0.00854492	-0.0473022
-0.055542	0.00823975	-0.0473022
-0.055542	0.00793457	-0.0476074
-0.0549316	0.00732422	-0.0476074
-0.0534058	0.00640869	-0.0469971
-0.0512695	0.00610352	-0.045166
-0.0485229	0.00579834	-0.0427246
-0.0469971	0.00549316	-0.0415039
-0.0460815	0.00518799	-0.0408936
-0.0460815	0.00457764	-0.0415039
-0.0463867	0.00366211	-0.0427246
-0.0463867	0.00305176	-0.043335
-0.0457764	0.00213623	-0.0436401
-0.0457764	0.0012207	-0.0445557
-0.0463867	0.000610352	-0.0457764
-0.0479126	0	-0.0479126
-0.0494385	-0.000610352	-0.0500488
-0.0497437	-0.0012207	-0.0509644
-0.0494385	-0.00152588	-0.0509644
-0.0488281	-0.00152588	-0.050354
-0.0482178	-0.00152588	-0.0497437
-0.0476074	-0.000915527	-0.0485229
-0.0469971	-0.000305176	-0.0473022
-0.0466919	0	-0.0466919
-0.0463867	0.000610352	-0.0457764
-0.0454712	0.000915527	-0.0445557
-0.0436401	0.0012207	-0.0424194
-0.0418091	0.000915527	-0.0408936
-0.0402832	0.000915527	-0.0393677
-0.0390625	0.000915527	-0.038147
-0.0375366	0.000915527	-0.0366211
-0.0366211	0.000915527	-0.0357056
-0.0360107	0.000915527	-0.0350952
-0.0357056	0.0012207	-0.0344849
-0.0354004	0.000915527	-0.0344849
-0.0354004	0.000915527	-0.0344849
-0.0360107	0.000915527	-0.0350952
-0.0366211	0.000915527	-0.0357056
-0.0375366	0.000915527	-0.0366211
-0.0384521	0.00152588	-0.0369263
-0.0390625	0.00213623	-0.0369263
-0.0393677	0.00244141	-0.0369263
-0.0396729	0.00305176	-0.0366211
-0.039978	0.00366211	-0.0363159
-0.0396729	0.00427246	-0.0354004
-0.0393677	0.00488281	-0.0344849
-0.0390625	0.00579834	-0.0332642
-0.0387573	0.00671387	-0.0320435
-0.0384521	0.00701904	-0.0314331
-0.0384521	0.00701904	-0.0314331
-0.0384521	0.00701904	-0.0314331
-0.0390625	0.00671387	-0.0323486
-0.0396729	0.00579834	-0.0338745
-0.0421143	0.00518799	-0.0369263
-0.0454712	0.00488281	-0.0405884
-0.0479126	0.00427246	-0.0436401
-0.0482178	0.00366211	-0.0445557
-0.0482178	0.00305176	-0.045166
-0.0488281	0.00274658	-0.0460815
-0.0485229	0.00274658	-0.0457764
-0.0469971	0.00274658	-0.0442505
-0.0442505	0.00213623	-0.0421143
-0.0411987	0.00213623	-0.0390625
-0.0372314	0.00213623	-0.0350952
-0.0332642	0.00183105	-0.0314331
-0.0299072	0.000915527	-0.0289917
-0.0280762	0	-0.0280762
-0.0274658	-0.000610352	-0.0280762
-0.0268555	-0.00152588	-0.0283813
-0.0268555	-0.00183105	-0.0286865
-0.0274658	-0.00213623	-0.0296021
-0.0286865	-0.00274658	-0.0314331
-0.0296021	-0.00305176	-0.0326538
-0.0305176	-0.00335693	-0.0338745
-0.0317383	-0.00305176	-0.03479
-0.0323486	-0.00244141	-0.03479
-0.0323486	-0.00152588	-0.0338745
-0.0320435	-0.000915527	-0.032959
-0.0317383	0.000305176	-0.0314331
-0.0317383	0.0012207	-0.0305176
-0.0314331	0.00183105	-0.0296021
-0.0311279	0.00244141	-0.0286865
-0.0308228	0.00274658	-0.0280762
-0.0314331	0.00335693	-0.0280762
-0.0317383	0.00366211	-0.0280762
-0.0314331	0.00366211	-0.027771
-0.0305176	0.00366211	-0.0268555
-0.0302124	0.00335693	-0.0268555
-0.0296021	0.00335693	-0.0262451
-0.0292969	0.00305176	-0.0262451
-0.0289917	0.00244141	-0.0265503
-0.0286865	0.00244141	-0.0262451
-0.027771	0.00244141	-0.0253296
-0.0271606	0.00305176	-0.0241089
-0.0268555	0.00396729	-0.0228882
-0.0259399	0.00518799	-0.020752
-0.0250244	0.00701904	-0.0180054
-0.0241089	0.0088501	-0.0152588
-0.0231934	0.0106812	-0.0125122
-0.0216675	0.012207	-0.00946045
-0.0189209	0.0134277	-0.00549316
-0.015564	0.0143433	-0.0012207
-0.010376	0.0149536	0.00457764
-0.00488281	0.0158691	0.0109863
0.000305176	0.017395	0.0177002
0.00610352	0.0183105	0.0244141
0.0115967	0.0189209	0.0305176
0.0158691	0.0195313	0.0354004
0.0192261	0.0195313	0.0387573
0.0244141	0.0192261	0.0436401
0.0314331	0.0183105	0.0497437
0.0393677	0.017395	0.0567627
0.0463867	0.0161743	0.062561
0.0527954	0.0149536	0.067749
0.0592041	0.0134277	0.0726318
0.0650024	0.012207	0.0772095
0.0689697	0.0115967	0.0805664
0.0720215	0.0115967	0.0836182
0.0735474	0.0115967	0.085144
0.0735474	0.0125122	0.0860596
0.0708008	0.0140381	0.0848389
0.0665283	0.015564	0.0820923
0.0613403	0.0158691	0.0772095
0.0561523	0.0143433	0.0704956
0.0518799	0.0109863	0.0628662
0.0488281	0.00579834	0.0546265
0.0469971	-0.0012207	0.0457764
0.0460815	-0.0088501	0.0372314
0.0463867	-0.0167847	0.0296021
0.0463867	-0.0241089	0.0222778
0.0448608	-0.0302124	0.0146484
0.0421143	-0.0354004	0.00671387
0.0390625	-0.0384521	0.000610352
0.0354004	-0.039978	-0.00457764
0.0302124	-0.0393677	-0.00915527
0.0231934	-0.0366211	-0.0134277
0.0140381	-0.0323486	-0.0183105
0.00427246	-0.0271606	-0.0228882
-0.00549316	-0.0219727	-0.0274658
-0.0146484	-0.017395	-0.0320435
-0.0228882	-0.0140381	-0.0369263
-0.0296021	-0.0119019	-0.0415039
-0.0354004	-0.010376	-0.0457764
-0.0402832	-0.00946045	-0.0497437
-0.0436401	-0.00915527	-0.0527954
-0.0445557	-0.00915527	-0.0537109
-0.043335	-0.00946045	-0.0527954
-0.0405884	-0.00976563	-0.050354
-0.0375366	-0.010376	-0.0479126
-0.0338745	-0.0106812	-0.0445557
-0.0305176	-0.0106812	-0.0411987
-0.0283813	-0.010376	-0.0387573
-0.027771	-0.00946045	-0.0372314
-0.0274658	-0.0088501	-0.0363159
-0.027771	-0.00823975	-0.0360107
-0.0296021	-0.00762939	-0.0372314
-0.0332642	-0.00701904	-0.0402832
-0.0369263	-0.00701904	-0.0439453
-0.0396729	-0.00701904	-0.0466919
-0.0405884	-0.00732422	-0.0479126
-0.0411987	-0.00762939	-0.0488281
-0.0424194	-0.00793457	-0.050354
-0.0430298	-0.00823975	-0.0512695
-0.0424194	-0.0088501	-0.0512695
-0.0408936	-0.00946045	-0.050354
-0.0387573	-0.0100708	-0.0488281
-0.0366211	-0.010376	-0.0469971
-0.0357056	-0.0106812	-0.0463867
-0.0357056	-0.0106812	-0.0463867
-0.0360107	-0.0109863	-0.0469971
-0.0363159	-0.0112915	-0.0476074
-0.0363159	-0.0115967	-0.0479126
-0.0360107	-0.0119019	-0.0479126
-0.0354004	-0.0115967	-0.0469971
-0.0350952	-0.0112915	-0.0463867
-0.0344849	-0.0112915	-0.0457764
-0.0341797	-0.0109863	-0.045166
-0.0338745	-0.010376	-0.0442505
-0.0335693	-0.0100708	-0.0436401
-0.0335693	-0.00915527	-0.0427246
-0.0332642	-0.00823975	-0.0415039
-0.0335693	-0.00732422	-0.0408936
-0.0344849	-0.00671387	-0.0411987
-0.0354004	-0.00640869	-0.0418091
-0.0354004	-0.00640869	-0.0418091
-0.03479	-0.00610352	-0.0408936
-0.0341797	-0.00610352	-0.0402832
-0.032959	-0.00640869	-0.0393677
-0.0314331	-0.00701904	-0.0384521
-0.0299072	-0.00732422	-0.0372314
-0.0292969	-0.00671387	-0.0360107
-0.0299072	-0.00488281	-0.03479
-0.0314331	-0.0012207	-0.0326538
-0.0320435	0.00518799	-0.0268555
-0.0314331	0.0143433	-0.0170898
-0.0289917	0.0250244	-0.00396729
-0.0247192	0.0378418	0.0131226
-0.0180054	0.0524902	0.0344849
-0.00701904	0.0668335	0.0598145
0.0109863	0.0778198	0.0888062
0.0372314	0.0842285	0.12146
0.0714111	0.0842285	0.15564
0.112	0.0765991	0.188599
0.158997	0.062561	0.221558
0.212097	0.0436401	0.255737
0.26947	0.0201416	0.289612
0.328369	-0.0128174	0.315552
0.386658	-0.0592041	0.327454
0.440674	-0.116577	0.324097
0.484924	-0.178528	0.306396
0.514832	-0.238037	0.276794
0.524292	-0.292358	0.231934
0.510559	-0.338745	0.171814
0.473328	-0.373535	0.0997925
0.415344	-0.393677	0.0216675
0.339355	-0.395508	-0.0561523
0.250549	-0.375977	-0.125427
0.15625	-0.336914	-0.180664
0.0650024	-0.282288	-0.217285
-0.0152588	-0.21698	-0.232239
-0.0793457	-0.147705	-0.227051
-0.123901	-0.0817871	-0.205688
-0.146484	-0.0250244	-0.171509
-0.148315	0.0183105	-0.130005
-0.133057	0.0466919	-0.0863647
-0.105286	0.0598145	-0.0454712
-0.0708008	0.0595093	-0.0112915
-0.0363159	0.0494385	0.0131226
-0.00671387	0.0335693	0.0268555
0.0149536	0.0161743	0.0311279
0.027771	0.0012207	0.0289917
0.0320435	-0.00946045	0.022583
0.0296021	-0.0152588	0.0143433
0.022583	-0.0164795	0.00610352
0.0137329	-0.0146484	-0.000915527
0.00457764	-0.0106812	-0.00610352
-0.00244141	-0.00640869	-0.0088501
-0.00732422	-0.00274658	-0.0100708
-0.0100708	0	-0.0100708
-0.0106812	0.00152588	-0.00915527
-0.00976563	0.00213623	-0.00762939
-0.00762939	0.00183105	-0.00579834
-0.00518799	0.00152588	-0.00366211
-0.00396729	0.000610352	-0.00335693
-0.00305176	0	-0.00305176
-0.000915527	-0.000610352	-0.00152588
0.0012207	-0.000610352	0.000610352
0.00305176	-0.000305176	0.00274658
0.00427246	-0.000305176	0.00396729
0.00579834	0	0.00579834
0.00732422	0	0.00732422
0.00823975	-0.000305176	0.00793457
0.00976563	-0.000305176	0.00946045
0.0119019	-0.000610352	0.0112915
0.0137329	-0.000610352	0.0131226
0.0146484	-0.0012207	0.0134277
0.0143433	-0.00152588	0.0128174
0.0134277	-0.00183105	0.0115967
0.0125122	-0.00183105	0.0106812
0.012207	-0.00152588	0.0106812
0.0128174	-0.0012207	0.0115967
0.0137329	-0.000610352	0.0131226
0.0152588	0.000305176	0.015564
0.017395	0.000610352	0.0180054
0.0195313	0.000915527	0.0204468
0.0213623	0.000915527	0.0222778
0.0228882	0.000915527	0.0238037
0.0241089	0.000915527	0.0250244
0.0256348	0.0012207	0.0268555
0.0274658	0.000610352	0.0280762
0.0292969	-0.000610352	0.0286865
0.0296021	-0.00183105	0.027771
0.0289917	-0.00305176	0.0259399
0.0286865	-0.00396729	0.0247192
0.0299072	-0.00488281	0.0250244
0.0317383	-0.00518799	0.0265503
0.0338745	-0.00518799	0.0286865
0.0357056	-0.00549316	0.0302124
0.0375366	-0.00579834	0.0317383
0.0390625	-0.00610352	0.032959
0.0396729	-0.00671387	0.032959
0.039978	-0.00671387	0.0332642
0.0415039	-0.00701904	0.0344849
0.0439453	-0.00762939	0.0363159
0.0466919	-0.00854492	0.038147
0.0485229	-0.00976563	0.0387573
0.0500488	-0.0106812	0.0393677
0.0518799	-0.0112915	0.0405884
0.0543213	-0.0119019	0.0424194
0.057373	-0.0128174	0.0445557
0.0598145	-0.0137329	0.0460815
0.0613403	-0.0143433	0.0469971
0.0631714	-0.0146484	0.0485229
0.0653076	-0.0149536	0.050354
0.0674438	-0.0152588	0.0521851
0.0692749	-0.015564	0.0537109
0.0714111	-0.0158691	0.055542
0.0741577	-0.0164795	0.0576782
0.0775146	-0.0167847	0.06073
0.0811768	-0.0170898	0.0640869
0.0854492	-0.0170898	0.0683594
0.0894165	-0.017395	0.0720215
0.0927734	-0.0183105	0.0744629
0.09552	-0.0192261	0.0762939
0.0979614	-0.0204468	0.0775146
0.100708	-0.0213623	0.0793457
0.103149	-0.0222778	0.0808716
0.105286	-0.0234985	0.0817871
0.108032	-0.0250244	0.0830078
0.111694	-0.0274658	0.0842285
0.116272	-0.0299072	0.0863647
0.121155	-0.0323486	0.0888062
0.126343	-0.0344849	0.0918579
0.131226	-0.0363159	0.0949097
0.135803	-0.038147	0.0976563
0.139465	-0.039978	0.0994873
0.144348	-0.0411987	0.103149
0.150146	-0.0424194	0.107727
0.15564	-0.0430298	0.11261
0.161133	-0.0439453	0.117188
0.166321	-0.0448608	0.12146
0.172424	-0.0460815	0.126343
0.179138	-0.0469971	0.132141
0.186157	-0.0479126	0.138245
0.193481	-0.0494385	0.144043
0.2005	-0.0515747	0.148926
0.206604	-0.0534058	0.153198
0.212402	-0.055542	0.15686
0.217896	-0.0570679	0.160828
0.223694	-0.0585938	0.1651
0.229492	-0.0601196	0.169373
0.23468	-0.0613403	0.17334
0.239563	-0.062561	0.177002
0.244446	-0.0637817	0.180664
0.250244	-0.0650024	0.185242
0.256653	-0.065918	0.190735
0.263367	-0.0668335	0.196533
0.269775	-0.0680542	0.201721
0.275269	-0.0692749	0.205994
0.280457	-0.0704956	0.209961
0.28656	-0.0714111	0.215149
0.292358	-0.0720215	0.220337
0.297546	-0.0723267	0.22522
0.302124	-0.0726318	0.229492
0.306396	-0.0732422	0.233154
0.310669	-0.0741577	0.236511
0.315247	-0.0744629	0.240784
0.318909	-0.0747681	0.244141
0.321655	-0.0744629	0.247192
0.322571	-0.0738525	0.248718
0.321655	-0.072937	0.248718
0.319519	-0.0714111	0.248108
0.316772	-0.0689697	0.247803
0.311584	-0.0656128	0.245972
0.304565	-0.0610352	0.24353
0.297241	-0.0558472	0.241394
0.289917	-0.0497437	0.240173
0.280762	-0.0430298	0.237732
0.269165	-0.0357056	0.233459
0.255432	-0.0280762	0.227356
0.240479	-0.0201416	0.220337
0.22522	-0.012207	0.213013
0.209351	-0.00457764	0.204773
0.191956	0.00274658	0.194702
0.172119	0.00946045	0.18158
0.151978	0.0152588	0.167236
0.133667	0.020752	0.154419
0.117493	0.0250244	0.142517
0.102539	0.0289917	0.131531
0.0878906	0.0323486	0.120239
0.0747681	0.03479	0.109558
0.0637817	0.0366211	0.100403
0.0540161	0.0375366	0.0915527
0.0445557	0.038147	0.0827026
0.0350952	0.0387573	0.0738525
0.0253296	0.0387573	0.0640869
0.0149536	0.0387573	0.0537109
0.00488281	0.0384521	0.043335
-0.00549316	0.038147	0.0326538
-0.0158691	0.0378418	0.0219727
-0.0253296	0.0366211	0.0112915
-0.0338745	0.03479	0.000915527
-0.0408936	0.0332642	-0.00762939
-0.0463867	0.0317383	-0.0146484
-0.050354	0.0299072	-0.0204468
-0.0537109	0.0274658	-0.0262451
-0.057373	0.0247192	-0.0326538
-0.06073	0.0222778	-0.0384521
-0.0631714	0.0201416	-0.0430298
-0.0643921	0.0183105	-0.0460815
-0.0643921	0.0167847	-0.0476074
-0.0643921	0.0149536	-0.0494385
-0.0650024	0.0137329	-0.0512695
-0.0668335	0.0125122	-0.0543213
-0.067749	0.0112915	-0.0564575
-0.0662231	0.0100708	-0.0561523
-0.0637817	0.00915527	-0.0546265
-0.0619507	0.00793457	-0.0540161
-0.0613403	0.00671387	-0.0546265
-0.0613403	0.00518799	-0.0561523
-0.0610352	0.00366211	-0.057373
-0.0604248	0.00244141	-0.0579834
-0.0598145	0.00183105	-0.0579834
-0.0598145	0.00152588	-0.0582886
-0.0604248	0.0012207	-0.0592041
-0.06073	0.000915527	-0.0598145
-0.06073	0.000915527	-0.0598145
-0.0610352	0.000915527	-0.0601196
-0.0616455	0.000610352	-0.0610352
-0.0619507	0.000305176	-0.0616455
-0.0616455	-0.000305176	-0.0619507
-0.06073	-0.000915527	-0.0616455
-0.0592041	-0.00152588	-0.06073
-0.0576782	-0.00274658	-0.0604248
-0.0564575	-0.00427246	-0.06073
-0.0546265	-0.00549316	-0.0601196
-0.0521851	-0.00640869	-0.0585938
-0.0494385	-0.00701904	-0.0564575
-0.0469971	-0.00793457	-0.0549316
-0.045166	-0.00854492	-0.0537109
-0.0436401	-0.00915527	-0.0527954
-0.0421143	-0.010376	-0.0524902
-0.0405884	-0.0119019	-0.0524902
-0.0393677	-0.0134277	-0.0527954
-0.0393677	-0.0149536	-0.0543213
-0.0402832	-0.0158691	-0.0561523
-0.0411987	-0.0167847	-0.0579834
-0.0408936	-0.0177002	-0.0585938
-0.0393677	-0.0186157	-0.0579834
-0.0378418	-0.0192261	-0.0570679
-0.0372314	-0.0201416	-0.057373
-0.0375366	-0.020752	-0.0582886
-0.0387573	-0.0210571	-0.0598145
-0.0387573	-0.0213623	-0.0601196
-0.0366211	-0.0222778	-0.0588989
-0.0338745	-0.0231934	-0.0570679
-0.0326538	-0.0244141	-0.0570679
-0.0326538	-0.0259399	-0.0585938
-0.0332642	-0.0271606	-0.0604248
-0.0335693	-0.0280762	-0.0616455
-0.0335693	-0.0289917	-0.062561
-0.0326538	-0.0296021	-0.0622559
-0.0317383	-0.0292969	-0.0610352
-0.0314331	-0.0286865	-0.0601196
-0.0320435	-0.0274658	-0.0595093
-0.032959	-0.0265503	-0.0595093
-0.0344849	-0.0256348	-0.0601196
-0.0354004	-0.0247192	-0.0601196
-0.0354004	-0.0231934	-0.0585938
-0.0357056	-0.0219727	-0.0576782
-0.0372314	-0.0204468	-0.0576782
-0.0384521	-0.0195313	-0.0579834
-0.0390625	-0.0189209	-0.0579834
-0.0387573	-0.0186157	-0.057373
-0.038147	-0.0183105	-0.0564575
-0.0375366	-0.0180054	-0.055542
-0.0372314	-0.0180054	-0.0552368
-0.0372314	-0.0183105	-0.055542
-0.0366211	-0.0186157	-0.0552368
-0.0360107	-0.0192261	-0.0552368
-0.0350952	-0.0195313	-0.0546265
-0.0344849	-0.0204468	-0.0549316
-0.03479	-0.020752	-0.055542
-0.0357056	-0.0210571	-0.0567627
-0.0369263	-0.0210571	-0.0579834
-0.0378418	-0.0210571	-0.0588989
-0.0378418	-0.0213623	-0.0592041
-0.0378418	-0.0216675	-0.0595093
-0.0378418	-0.0219727	-0.0598145
-0.0384521	-0.0222778	-0.06073
-0.0396729	-0.022583	-0.0622559
-0.0405884	-0.0231934	-0.0637817
-0.0408936	-0.0238037	-0.0646973
-0.0405884	-0.0241089	-0.0646973
-0.0405884	-0.0247192	-0.0653076
-0.0408936	-0.0250244	-0.065918
-0.0408936	-0.0256348	-0.0665283
-0.0418091	-0.0259399	-0.067749
-0.0439453	-0.0259399	-0.0698853
-0.0460815	-0.0256348	-0.0717163
-0.0479126	-0.0253296	-0.0732422
-0.0494385	-0.0253296	-0.0747681
-0.0515747	-0.0259399	-0.0775146
-0.0534058	-0.0265503	-0.0799561
-0.0543213	-0.0271606	-0.0814819
-0.0546265	-0.0274658	-0.0820923
-0.0549316	-0.0280762	-0.0830078
-0.0546265	-0.0283813	-0.0830078
-0.0540161	-0.0283813	-0.0823975
-0.0527954	-0.0283813	-0.0811768
-0.0512695	-0.0283813	-0.0796509
-0.0500488	-0.0280762	-0.078125
-0.0494385	-0.027771	-0.0772095
-0.0488281	-0.0271606	-0.0759888
-0.0491333	-0.0262451	-0.0753784
-0.050354	-0.0250244	-0.0753784
-0.0521851	-0.0244141	-0.0765991
-0.0540161	-0.0247192	-0.0787354
-0.0558472	-0.0250244	-0.0808716
-0.0570679	-0.0256348	-0.0827026
-0.0582886	-0.0259399	-0.0842285
-0.0595093	-0.0262451	-0.0857544
-0.0604248	-0.0268555	-0.0872803
-0.0610352	-0.0271606	-0.0881958
-0.0616455	-0.0274658	-0.0891113
-0.0631714	-0.0280762	-0.0912476
-0.0643921	-0.0286865	-0.0930786
-0.0646973	-0.0289917	-0.093689
-0.0637817	-0.0292969	-0.0930786
-0.062561	-0.0299072	-0.0924683
-0.0613403	-0.0305176	-0.0918579
-0.0604248	-0.0311279	-0.0915527
-0.0595093	-0.0314331	-0.0909424
-0.057373	-0.0317383	-0.0891113
-0.0546265	-0.0320435	-0.0866699
-0.0518799	-0.0320435	-0.0839233
-0.0497437	-0.0320435	-0.0817871
-0.0485229	-0.0314331	-0.0799561
-0.0482178	-0.0305176	-0.0787354
-0.0491333	-0.0296021	-0.0787354
-0.0500488	-0.0289917	-0.0790405
-0.0512695	-0.0280762	-0.0793457
-0.0531006	-0.0271606	-0.0802612
-0.0552368	-0.0259399	-0.0811768
-0.0576782	-0.0253296	-0.0830078
-0.0595093	-0.0253296	-0.0848389
-0.06073	-0.0256348	-0.0863647
-0.0619507	-0.0259399	-0.0878906
-0.0631714	-0.0262451	-0.0894165
-0.0634766	-0.0262451	-0.0897217
-0.062561	-0.0271606	-0.0897217
-0.0610352	-0.0283813	-0.0894165
-0.0598145	-0.0299072	-0.0897217
-0.0592041	-0.0314331	-0.0906372
-0.0579834	-0.0323486	-0.090332
-0.0564575	-0.0332642	-0.0897217
-0.0552368	-0.0338745	-0.0891113
-0.0540161	-0.0341797	-0.0881958
-0.0531006	-0.0344849	-0.0875854
-0.0521851	-0.0344849	-0.0866699
-0.0518799	-0.0341797	-0.0860596
-0.0518799	-0.0338745	-0.0857544
-0.0521851	-0.0335693	-0.0857544
-0.0524902	-0.032959	-0.0854492
-0.0524902	-0.0323486	-0.0848389
-0.0527954	-0.0320435	-0.0848389
-0.0540161	-0.0317383	-0.0857544
-0.0552368	-0.0314331	-0.0866699
-0.0552368	-0.0311279	-0.0863647
-0.0549316	-0.0305176	-0.0854492
-0.0564575	-0.0296021	-0.0860596
-0.0582886	-0.0286865	-0.0869751
-0.0588989	-0.0283813	-0.0872803
-0.0585938	-0.027771	-0.0863647
-0.0579834	-0.027771	-0.0857544
-0.0564575	-0.0274658	-0.0839233
-0.0549316	-0.0271606	-0.0820923
-0.0531006	-0.0271606	-0.0802612
-0.0515747	-0.027771	-0.0793457
-0.0497437	-0.0283813	-0.078125
-0.0473022	-0.0292969	-0.0765991
-0.0448608	-0.0299072	-0.0747681
-0.0439453	-0.0305176	-0.0744629
-0.0445557	-0.0308228	-0.0753784
-0.0454712	-0.0308228	-0.0762939
-0.0460815	-0.0311279	-0.0772095
-0.0466919	-0.0314331	-0.078125
-0.0469971	-0.0317383	-0.0787354
-0.0469971	-0.0317383	-0.0787354
-0.0466919	-0.0314331	-0.078125
-0.0457764	-0.0311279	-0.0769043
-0.0448608	-0.0308228	-0.0756836
-0.0436401	-0.0299072	-0.0735474
-0.0415039	-0.0286865	-0.0701904
-0.0393677	-0.0274658	-0.0668335
-0.0369263	-0.0259399	-0.0628662
-0.0350952	-0.0244141	-0.0595093
-0.0326538	-0.0238037	-0.0564575
-0.0296021	-0.0231934	-0.0527954
-0.0262451	-0.022583	-0.0488281
-0.022583	-0.0222778	-0.0448608
-0.0177002	-0.022583	-0.0402832
-0.0125122	-0.0234985	-0.0360107
-0.00732422	-0.0244141	-0.0317383
-0.00213623	-0.0253296	-0.0274658
0.00305176	-0.0262451	-0.0231934
0.00854492	-0.0271606	-0.0186157
0.0146484	-0.0274658	-0.0128174
0.0210571	-0.027771	-0.00671387
0.0268555	-0.0280762	-0.0012207
0.0323486	-0.0280762	0.00427246
0.0387573	-0.0280762	0.0106812
0.0460815	-0.0280762	0.0180054
0.0537109	-0.0280762	0.0256348
0.06073	-0.0283813	0.0323486
0.065918	-0.0280762	0.0378418
0.0686646	-0.0271606	0.0415039
0.0689697	-0.0259399	0.0430298
0.0662231	-0.0241089	0.0421143
0.062561	-0.0228882	0.0396729
0.0588989	-0.0219727	0.0369263
0.0552368	-0.0219727	0.0332642
0.0509644	-0.022583	0.0283813
0.0463867	-0.0247192	0.0216675
0.0424194	-0.0286865	0.0137329
0.0396729	-0.0338745	0.00579834
0.0393677	-0.0405884	-0.0012207
0.0405884	-0.0482178	-0.00762939
0.0427246	-0.055542	-0.0128174
0.0439453	-0.0619507	-0.0180054
0.043335	-0.0668335	-0.0234985
0.039978	-0.0701904	-0.0302124
0.0350952	-0.0720215	-0.0369263
0.0296021	-0.0717163	-0.0421143
0.0231934	-0.0695801	-0.0463867
0.0149536	-0.0650024	-0.0500488
0.00549316	-0.0592041	-0.0537109
-0.00335693	-0.0534058	-0.0567627
-0.0109863	-0.0479126	-0.0588989
-0.0170898	-0.0430298	-0.0601196
-0.0216675	-0.0393677	-0.0610352
-0.0247192	-0.0369263	-0.0616455
-0.0274658	-0.0350952	-0.062561
-0.0296021	-0.0338745	-0.0634766
-0.0311279	-0.0332642	-0.0643921
-0.0317383	-0.0332642	-0.0650024
-0.0323486	-0.0335693	-0.065918
-0.0335693	-0.0338745	-0.0674438
-0.0354004	-0.0341797	-0.0695801
-0.0366211	-0.0344849	-0.071106
-0.0372314	-0.0344849	-0.0717163
-0.038147	-0.0338745	-0.0720215
-0.039978	-0.0335693	-0.0735474
-0.0411987	-0.032959	-0.0741577
-0.0415039	-0.0323486	-0.0738525
-0.0405884	-0.0314331	-0.0720215
-0.0402832	-0.0305176	-0.0708008
-0.0402832	-0.0299072	-0.0701904
-0.0402832	-0.0292969	-0.0695801
-0.039978	-0.0286865	-0.0686646
-0.0396729	-0.0283813	-0.0680542
-0.0396729	-0.0274658	-0.0671387
-0.039978	-0.0265503	-0.0665283
-0.039978	-0.0262451	-0.0662231
-0.039978	-0.0259399	-0.065918
-0.0405884	-0.0256348	-0.0662231
-0.0415039	-0.0253296	-0.0668335
-0.0418091	-0.0247192	-0.0665283
-0.0408936	-0.0241089	-0.0650024
-0.0384521	-0.0234985	-0.0619507
-0.0357056	-0.0231934	-0.0588989
-0.0338745	-0.0228882	-0.0567627
-0.0326538	-0.0222778	-0.0549316
-0.0317383	-0.0213623	-0.0531006
-0.0302124	-0.020752	-0.0509644
-0.0283813	-0.0201416	-0.0485229
-0.0271606	-0.0198364	-0.0469971
-0.0265503	-0.0192261	-0.0457764
-0.0265503	-0.0189209	-0.0454712
-0.0271606	-0.0189209	-0.0460815
-0.0286865	-0.0186157	-0.0473022
-0.0299072	-0.0189209	-0.0488281
-0.0299072	-0.0189209	-0.0488281
-0.0296021	-0.0186157	-0.0482178
-0.0289917	-0.0183105	-0.0473022
-0.0286865	-0.0180054	-0.0466919
-0.0274658	-0.0177002	-0.045166
-0.0265503	-0.0167847	-0.043335
-0.0268555	-0.0143433	-0.0411987
-0.027771	-0.0109863	-0.0387573
-0.027771	-0.00579834	-0.0335693
-0.0274658	0.0012207	-0.0262451
-0.0259399	0.0106812	-0.0152588
-0.0222778	0.022583	0.000305176
-0.0164795	0.0360107	0.0195313
-0.00762939	0.0497437	0.0421143
0.00610352	0.0610352	0.0671387
0.0262451	0.0680542	0.0942993
0.0534058	0.0695801	0.122986
0.0881958	0.0646973	0.152893
0.131226	0.0537109	0.184937
0.18158	0.0372314	0.218811
0.237732	0.0161743	0.253906
0.297241	-0.0119019	0.285339
0.35675	-0.0509644	0.305786
0.413208	-0.101318	0.31189
0.462341	-0.157471	0.304871
0.498657	-0.211792	0.286865
0.516052	-0.260315	0.255737
0.510254	-0.301514	0.20874
0.479431	-0.332947	0.146484
0.42572	-0.351868	0.0738525
0.352478	-0.354919	-0.00244141
0.265503	-0.339355	-0.0738525
0.171814	-0.306396	-0.134583
0.0787354	-0.258484	-0.179749
-0.00732422	-0.201111	-0.208435
-0.0787354	-0.139465	-0.218201
-0.129089	-0.0796509	-0.20874
-0.15686	-0.027771	-0.184631
-0.161743	0.0125122	-0.149231
-0.147095	0.0393677	-0.107727
-0.118713	0.0524902	-0.0662231
-0.0820923	0.0534058	-0.0286865
-0.0445557	0.045166	0.000610352
-0.010376	0.0314331	0.0210571
0.0164795	0.015564	0.0320435
0.03479	0.000915527	0.0357056
0.0427246	-0.0100708	0.0326538
0.0418091	-0.0164795	0.0253296
0.0338745	-0.0186157	0.0152588
0.022583	-0.0180054	0.00457764
0.0112915	-0.0158691	-0.00457764
0.00183105	-0.0131226	-0.0112915
-0.00488281	-0.0100708	-0.0149536
-0.00946045	-0.00732422	-0.0167847
-0.0119019	-0.00549316	-0.017395
-0.0109863	-0.00488281	-0.0158691
-0.00823975	-0.00457764	-0.0128174
-0.00457764	-0.00488281	-0.00946045
-0.000305176	-0.00518799	-0.00549316
0.00335693	-0.00518799	-0.00183105
0.00671387	-0.00488281	0.00183105
0.00946045	-0.00457764	0.00488281
0.0119019	-0.00427246	0.00762939
0.0137329	-0.00488281	0.0088501
0.0152588	-0.00549316	0.00976563
0.0170898	-0.00671387	0.010376
0.0180054	-0.00793457	0.0100708
0.0189209	-0.00915527	0.00976563
0.0192261	-0.0106812	0.00854492
0.0195313	-0.0125122	0.00701904
0.0195313	-0.0137329	0.00579834
0.0189209	-0.0149536	0.00396729
0.0183105	-0.015564	0.00274658
0.0186157	-0.0158691	0.00274658
0.0195313	-0.0161743	0.00335693
0.0201416	-0.0164795	0.00366211
0.0198364	-0.0164795	0.00335693
0.0201416	-0.0164795	0.00366211
0.0213623	-0.0161743	0.00518799
0.0234985	-0.0158691	0.00762939
0.0253296	-0.0152588	0.0100708
0.0280762	-0.0146484	0.0134277
0.0311279	-0.0143433	0.0167847
0.0344849	-0.0143433	0.0201416
0.0375366	-0.0134277	0.0241089
0.0405884	-0.0125122	0.0280762
0.0430298	-0.0119019	0.0311279
0.0448608	-0.0112915	0.0335693
0.0466919	-0.0112915	0.0354004
0.0479126	-0.0115967	0.0363159
0.0485229	-0.012207	0.0363159
0.0482178	-0.0131226	0.0350952
0.0479126	-0.0143433	0.0335693
0.0482178	-0.015564	0.0326538
0.0485229	-0.0164795	0.0320435
0.0494385	-0.0170898	0.0323486
0.0509644	-0.0177002	0.0332642
0.0531006	-0.0183105	0.03479
0.055542	-0.0183105	0.0372314
0.0582886	-0.0180054	0.0402832
0.06073	-0.0177002	0.0430298
0.062561	-0.0170898	0.0454712
0.0637817	-0.0164795	0.0473022
0.0643921	-0.0161743	0.0482178
0.0650024	-0.0161743	0.0488281
0.0653076	-0.0158691	0.0494385
0.0646973	-0.015564	0.0491333
0.0640869	-0.0152588	0.0488281
0.0650024	-0.0152588	0.0497437
0.0668335	-0.015564	0.0512695
0.0698853	-0.0158691	0.0540161
0.072937	-0.0164795	0.0564575
0.0762939	-0.0167847	0.0595093
0.0796509	-0.0170898	0.062561
0.083313	-0.017395	0.065918
0.0869751	-0.0183105	0.0686646
0.0909424	-0.0198364	0.071106
0.0949097	-0.0213623	0.0735474
0.0985718	-0.0228882	0.0756836
0.101013	-0.0241089	0.0769043
0.102539	-0.0256348	0.0769043
0.10437	-0.0265503	0.0778198
0.107422	-0.0280762	0.0793457
0.111389	-0.0296021	0.0817871
0.115356	-0.0311279	0.0842285
0.119629	-0.0323486	0.0872803
0.123291	-0.0335693	0.0897217
0.126953	-0.0350952	0.0918579
0.13031	-0.0363159	0.0939941
0.133972	-0.0378418	0.0961304
0.137329	-0.0396729	0.0976563
0.140686	-0.0415039	0.0991821
0.144958	-0.043335	0.101624
0.150452	-0.045166	0.105286
0.15686	-0.0476074	0.109253
0.163574	-0.0497437	0.113831
0.169983	-0.0518799	0.118103
0.176697	-0.0534058	0.123291
0.184326	-0.0552368	0.129089
0.192566	-0.0570679	0.135498
0.200195	-0.0588989	0.141296
0.206604	-0.0604248	0.146179
0.212402	-0.062561	0.149841
0.217896	-0.0646973	0.153198
0.223999	-0.0668335	0.157166
0.229492	-0.0686646	0.160828
0.23468	-0.0701904	0.16449
0.239868	-0.0717163	0.168152
0.245361	-0.0732422	0.172119
0.25116	-0.0744629	0.176697
0.257263	-0.0756836	0.18158
0.263062	-0.0769043	0.186157
0.268555	-0.0778198	0.190735
0.273743	-0.0787354	0.195007
0.27832	-0.0793457	0.198975
0.281982	-0.0799561	0.202026
0.28595	-0.0802612	0.205688
0.290222	-0.0805664	0.209656
0.2948	-0.0811768	0.213623
0.298767	-0.0817871	0.21698
0.302429	-0.0820923	0.220337
0.305481	-0.0817871	0.223694
0.308228	-0.0814819	0.226746
0.311279	-0.0808716	0.230408
0.314026	-0.0799561	0.23407
0.316162	-0.0790405	0.237122
0.316467	-0.0772095	0.239258
0.314026	-0.0741577	0.239868
0.309448	-0.0698853	0.239563
0.302734	-0.0646973	0.238037
0.2948	-0.0585938	0.236206
0.28595	-0.0518799	0.23407
0.274963	-0.0442505	0.230713
0.261536	-0.0363159	0.22522
0.246277	-0.0280762	0.218201
0.231018	-0.0198364	0.211182
0.215759	-0.0115967	0.204163
0.2005	-0.00396729	0.196533
0.185547	0.00183105	0.187378
0.170288	0.00671387	0.177002
0.154724	0.0112915	0.166016
0.13855	0.0149536	0.153503
0.12207	0.0183105	0.140381
0.105896	0.0213623	0.127258
0.0909424	0.0244141	0.115356
0.0765991	0.0271606	0.10376
0.0622559	0.0292969	0.0915527
0.0476074	0.0317383	0.0793457
0.0338745	0.0338745	0.067749
0.0210571	0.0360107	0.0570679
0.0109863	0.0375366	0.0485229
0.00305176	0.0384521	0.0415039
-0.00427246	0.0390625	0.03479
-0.0109863	0.0393677	0.0283813
-0.0170898	0.0393677	0.0222778
-0.0219727	0.0387573	0.0167847
-0.0262451	0.0375366	0.0112915
-0.0299072	0.0360107	0.00610352
-0.0332642	0.03479	0.00152588
-0.0360107	0.0332642	-0.00274658
-0.0384521	0.0323486	-0.00610352
-0.0405884	0.0314331	-0.00915527
-0.043335	0.0311279	-0.012207
-0.0469971	0.0308228	-0.0161743
-0.050354	0.0305176	-0.0198364
-0.0524902	0.0302124	-0.0222778
-0.0540161	0.0299072	-0.0241089
-0.055542	0.0296021	-0.0259399
-0.0576782	0.0292969	-0.0283813
-0.0598145	0.0289917	-0.0308228
-0.0619507	0.0289917	-0.032959
-0.0634766	0.0283813	-0.0350952
-0.0640869	0.0274658	-0.0366211
-0.0643921	0.0265503	-0.0378418
-0.0646973	0.0259399	-0.0387573
-0.0643921	0.0253296	-0.0390625
-0.0637817	0.0247192	-0.0390625
-0.0628662	0.0241089	-0.0387573
-0.0619507	0.0234985	-0.0384521
-0.0601196	0.0228882	-0.0372314
-0.0579834	0.0219727	-0.0360107
-0.0558472	0.0213623	-0.0344849
-0.0540161	0.0210571	-0.032959
-0.0531006	0.020752	-0.0323486
-0.0521851	0.0198364	-0.0323486
-0.0515747	0.0189209	-0.0326538
-0.050354	0.0186157	-0.0317383
-0.0494385	0.0186157	-0.0308228
-0.0491333	0.0186157	-0.0305176
-0.0497437	0.0192261	-0.0305176
-0.0500488	0.0198364	-0.0302124
-0.0494385	0.020752	-0.0286865
-0.0473022	0.0213623	-0.0259399
-0.045166	0.0222778	-0.0228882
-0.0436401	0.0228882	-0.020752
-0.0421143	0.0231934	-0.0189209
-0.039978	0.0234985	-0.0164795
-0.0378418	0.0228882	-0.0149536
-0.0360107	0.0219727	-0.0140381
-0.0350952	0.0210571	-0.0140381
-0.0357056	0.0198364	-0.0158691
-0.0366211	0.0186157	-0.0180054
-0.0378418	0.017395	-0.0204468
-0.0393677	0.0161743	-0.0231934
-0.0405884	0.015564	-0.0250244
-0.0415039	0.0152588	-0.0262451
-0.0424194	0.0152588	-0.0271606
-0.043335	0.015564	-0.027771
-0.043335	0.0158691	-0.0274658
-0.0430298	0.0161743	-0.0268555
-0.043335	0.0167847	-0.0265503
-0.0439453	0.0180054	-0.0259399
-0.0442505	0.0192261	-0.0250244
-0.0442505	0.0201416	-0.0241089
-0.0445557	0.020752	-0.0238037
-0.0454712	0.020752	-0.0247192
-0.0463867	0.020752	-0.0256348
-0.0473022	0.020752	-0.0265503
-0.0488281	0.0210571	-0.027771
-0.0500488	0.0210571	-0.0289917
-0.0509644	0.0210571	-0.0299072
-0.0515747	0.0204468	-0.0311279
-0.0521851	0.0198364	-0.0323486
-0.0534058	0.0192261	-0.0341797
-0.0537109	0.0189209	-0.03479
-0.0527954	0.0183105	-0.0344849
-0.0521851	0.0177002	-0.0344849
-0.0518799	0.017395	-0.0344849
-0.0512695	0.0170898	-0.0341797
-0.050354	0.0167847	-0.0335693
-0.0494385	0.0158691	-0.0335693
-0.0488281	0.0152588	-0.0335693
-0.0491333	0.0146484	-0.0344849
-0.050354	0.0140381	-0.0363159
-0.0518799	0.0131226	-0.0387573
-0.0534058	0.0119019	-0.0415039
-0.0558472	0.0112915	-0.0445557
-0.0585938	0.0112915	-0.0473022
-0.06073	0.0112915	-0.0494385
-0.0619507	0.0109863	-0.0509644
-0.062561	0.0106812	-0.0518799
-0.0637817	0.010376	-0.0534058
-0.0646973	0.0100708	-0.0546265
-0.0656128	0.00976563	-0.0558472
-0.0653076	0.00946045	-0.0558472
-0.0640869	0.0088501	-0.0552368
-0.0631714	0.00823975	-0.0549316
-0.0631714	0.00732422	-0.0558472
-0.0640869	0.00640869	-0.0576782
-0.0653076	0.00549316	-0.0598145
-0.0662231	0.00427246	-0.0619507
-0.0671387	0.00305176	-0.0640869
-0.0683594	0.00244141	-0.065918
-0.0698853	0.00213623	-0.067749
-0.071106	0.00213623	-0.0689697
-0.0717163	0.00213623	-0.0695801
-0.0735474	0.00244141	-0.071106
-0.0762939	0.00244141	-0.0738525
-0.0784302	0.00274658	-0.0756836
-0.0793457	0.00335693	-0.0759888
-0.0790405	0.00396729	-0.0750732
-0.0778198	0.00396729	-0.0738525
-0.0756836	0.00305176	-0.0726318
-0.0732422	0.00213623	-0.071106
-0.0714111	0.0012207	-0.0701904
-0.0701904	0.000610352	-0.0695801
-0.0683594	-0.000305176	-0.0686646
-0.0665283	-0.0012207	-0.067749
-0.0656128	-0.00152588	-0.0671387
-0.065918	-0.00152588	-0.0674438
-0.0668335	-0.00152588	-0.0683594
-0.0680542	-0.0012207	-0.0692749
-0.0689697	-0.0012207	-0.0701904
-0.0698853	-0.000915527	-0.0708008
-0.071106	-0.000305176	-0.0714111
-0.0723267	0	-0.0723267
-0.072937	0.000305176	-0.0726318
-0.072937	0	-0.072937
-0.072937	-0.000305176	-0.0732422
-0.0726318	-0.000915527	-0.0735474
-0.0723267	-0.00152588	-0.0738525
-0.0723267	-0.00213623	-0.0744629
-0.0726318	-0.00213623	-0.0747681
-0.0726318	-0.00213623	-0.0747681
-0.0723267	-0.00213623	-0.0744629
-0.0714111	-0.00244141	-0.0738525
-0.0698853	-0.00274658	-0.0726318
-0.0683594	-0.00305176	-0.0714111
-0.0665283	-0.00305176	-0.0695801
-0.0643921	-0.00274658	-0.0671387
-0.0628662	-0.00213623	-0.0650024
-0.0619507	-0.00183105	-0.0637817
-0.0622559	-0.00183105	-0.0640869
-0.062561	-0.00152588	-0.0640869
-0.0631714	-0.0012207	-0.0643921
-0.0643921	-0.0012207	-0.0656128
-0.0671387	-0.00183105	-0.0689697
-0.0701904	-0.00213623	-0.0723267
-0.0717163	-0.00244141	-0.0741577
-0.0714111	-0.00244141	-0.0738525
-0.0698853	-0.00274658	-0.0726318
-0.0683594	-0.00274658	-0.071106
-0.0668335	-0.00305176	-0.0698853
-0.0653076	-0.00274658	-0.0680542
-0.0634766	-0.00213623	-0.0656128
-0.0616455	-0.00244141	-0.0640869
-0.0592041	-0.00274658	-0.0619507
-0.0567627	-0.00274658	-0.0595093
-0.055542	-0.00244141	-0.0579834
-0.0552368	-0.00213623	-0.057373
-0.055542	-0.00244141	-0.0579834
-0.0561523	-0.00305176	-0.0592041
-0.0564575	-0.00335693	-0.0598145
-0.0570679	-0.00305176	-0.0601196
-0.0567627	-0.00213623	-0.0588989
-0.0558472	-0.000915527	-0.0567627
-0.0546265	0.000610352	-0.0540161
-0.0537109	0.00213623	-0.0515747
-0.0524902	0.00366211	-0.0488281
-0.0512695	0.00518799	-0.0460815
-0.0485229	0.00640869	-0.0421143
-0.0445557	0.00671387	-0.0378418
-0.039978	0.00671387	-0.0332642
-0.0360107	0.00701904	-0.0289917
-0.0320435	0.00732422	-0.0247192
-0.0274658	0.00762939	-0.0198364
-0.0213623	0.00732422	-0.0140381
-0.0146484	0.00701904	-0.00762939
-0.00823975	0.00640869	-0.00183105
-0.00244141	0.00579834	0.00335693
0.00335693	0.00518799	0.00854492
0.00976563	0.00488281	0.0146484
0.0164795	0.00518799	0.0216675
0.0231934	0.00518799	0.0283813
0.0292969	0.00488281	0.0341797
0.0344849	0.00457764	0.0390625
0.0372314	0.00457764	0.0418091
0.0378418	0.00518799	0.0430298
0.038147	0.00640869	0.0445557
0.0384521	0.00732422	0.0457764
0.0372314	0.0088501	0.0460815
0.0354004	0.0100708	0.0454712
0.0326538	0.0112915	0.0439453
0.0299072	0.0119019	0.0418091
0.0274658	0.0109863	0.0384521
0.0253296	0.0088501	0.0341797
0.0244141	0.00488281	0.0292969
0.0253296	-0.000305176	0.0250244
0.0262451	-0.00671387	0.0195313
0.0262451	-0.0137329	0.0125122
0.0250244	-0.020752	0.00427246
0.0216675	-0.0268555	-0.00518799
0.0164795	-0.0314331	-0.0149536
0.00976563	-0.03479	-0.0250244
0.00152588	-0.0360107	-0.0344849
-0.00732422	-0.0354004	-0.0427246
-0.015564	-0.032959	-0.0485229
-0.0241089	-0.0286865	-0.0527954
-0.032959	-0.0231934	-0.0561523
-0.0405884	-0.017395	-0.0579834
-0.0463867	-0.0125122	-0.0588989
-0.0506592	-0.0088501	-0.0595093
-0.0543213	-0.00640869	-0.06073
-0.0567627	-0.00457764	-0.0613403
-0.0570679	-0.00396729	-0.0610352
-0.0567627	-0.00457764	-0.0613403
-0.0564575	-0.00579834	-0.0622559
-0.057373	-0.00732422	-0.0646973
-0.0592041	-0.00823975	-0.0674438
-0.0610352	-0.00915527	-0.0701904
-0.062561	-0.00976563	-0.0723267
-0.0631714	-0.00915527	-0.0723267
-0.0628662	-0.00854492	-0.0714111
-0.0622559	-0.00793457	-0.0701904
-0.0619507	-0.00732422	-0.0692749
-0.062561	-0.00640869	-0.0689697
-0.0622559	-0.00579834	-0.0680542
-0.0610352	-0.00579834	-0.0668335
-0.0588989	-0.00610352	-0.0650024
-0.0570679	-0.00671387	-0.0637817
-0.055542	-0.00762939	-0.0631714
-0.0534058	-0.00854492	-0.0619507
-0.0518799	-0.00915527	-0.0610352
-0.0518799	-0.00976563	-0.0616455
-0.0518799	-0.00976563	-0.0616455
-0.0515747	-0.0088501	-0.0604248
-0.0506592	-0.00762939	-0.0582886
-0.050354	-0.00549316	-0.0558472
-0.0512695	-0.00305176	-0.0543213
-0.0524902	-0.000610352	-0.0531006
-0.0534058	0.0012207	-0.0521851
-0.0531006	0.00274658	-0.050354
-0.0521851	0.00396729	-0.0482178
-0.0509644	0.00518799	-0.0457764
-0.050354	0.00549316	-0.0448608
-0.0500488	0.00518799	-0.0448608
-0.0509644	0.00457764	-0.0463867
-0.0512695	0.00335693	-0.0479126
-0.0491333	0.00183105	-0.0473022
-0.0460815	0.000305176	-0.0457764
-0.0445557	-0.0012207	-0.0457764
-0.0448608	-0.00183105	-0.0466919
-0.0454712	-0.00152588	-0.0469971
-0.045166	-0.0012207	-0.0463867
-0.0442505	-0.000610352	-0.0448608
-0.0427246	0.000305176	-0.0424194
-0.0408936	0.00152588	-0.0393677
-0.0393677	0.00274658	-0.0366211
-0.0387573	0.00396729	-0.03479
-0.0393677	0.00488281	-0.0344849
-0.0402832	0.00610352	-0.0341797
-0.0408936	0.00793457	-0.032959
-0.0411987	0.0106812	-0.0305176
-0.0402832	0.0146484	-0.0256348
-0.0384521	0.020752	-0.0177002
-0.03479	0.0289917	-0.00579834
-0.0286865	0.0378418	0.00915527
-0.0183105	0.0466919	0.0283813
-0.00457764	0.0540161	0.0494385
0.0146484	0.0585938	0.0732422
0.0408936	0.0592041	0.100098
0.0735474	0.0558472	0.129395
0.111389	0.0494385	0.160828
0.154419	0.0424194	0.196838
0.2005	0.0344849	0.234985
0.247498	0.0216675	0.269165
0.293274	0.000915527	0.294189
0.334167	-0.027771	0.306396
0.367432	-0.0604248	0.307007
0.386658	-0.0918579	0.2948
0.388489	-0.118408	0.270081
0.370483	-0.140076	0.230408
0.332947	-0.157166	0.175781
0.27771	-0.167236	0.110474
0.20752	-0.168457	0.0390625
0.127869	-0.159302	-0.0314331
0.0457764	-0.140076	-0.0942993
-0.0311279	-0.112	-0.143127
-0.0967407	-0.0775146	-0.174255
-0.14679	-0.0405884	-0.187378
-0.178833	-0.00579834	-0.184631
-0.191345	0.0231934	-0.168152
-0.184326	0.0436401	-0.140686
-0.162048	0.0546265	-0.107422
-0.128479	0.0567627	-0.0717163
-0.0897217	0.0518799	-0.0378418
-0.0515747	0.0418091	-0.00976563
-0.0189209	0.0289917	0.0100708
0.00640869	0.0161743	0.022583
0.0234985	0.00457764	0.0280762
0.0320435	-0.00427246	0.027771
0.0335693	-0.00976563	0.0238037
0.0302124	-0.012207	0.0180054
0.0250244	-0.0125122	0.0125122
0.0195313	-0.0115967	0.00793457
0.0140381	-0.0100708	0.00396729
0.00915527	-0.00823975	0.000915527
0.00579834	-0.00610352	-0.000305176
0.00549316	-0.00457764	0.000915527
0.00671387	-0.00335693	0.00335693
0.00915527	-0.00244141	0.00671387
0.0115967	-0.00183105	0.00976563
0.0137329	-0.0012207	0.0125122
0.0152588	-0.00152588	0.0137329
0.0152588	-0.00213623	0.0131226
0.0146484	-0.00244141	0.012207
0.0149536	-0.00274658	0.012207
0.0158691	-0.00305176	0.0128174
0.0164795	-0.00366211	0.0128174
0.0164795	-0.00457764	0.0119019
0.0161743	-0.00549316	0.0106812
0.0164795	-0.00610352	0.010376
0.017395	-0.00671387	0.0106812
0.0189209	-0.00732422	0.0115967
0.0204468	-0.00732422	0.0131226
0.0210571	-0.00701904	0.0140381
0.0216675	-0.00671387	0.0149536
0.022583	-0.00671387	0.0158691
0.0238037	-0.00640869	0.017395
0.0241089	-0.00610352	0.0180054
0.0234985	-0.00549316	0.0180054
0.0219727	-0.00488281	0.0170898
0.020752	-0.00396729	0.0167847
0.0210571	-0.00366211	0.017395
0.0228882	-0.00335693	0.0195313
0.0247192	-0.00335693	0.0213623
0.0265503	-0.00366211	0.0228882
0.0292969	-0.00396729	0.0253296
0.0326538	-0.00427246	0.0283813
0.0366211	-0.00488281	0.0317383
0.0402832	-0.00610352	0.0341797
0.0442505	-0.00701904	0.0372314
0.0479126	-0.00823975	0.0396729
0.0500488	-0.0088501	0.0411987
0.0494385	-0.00915527	0.0402832
0.0460815	-0.00946045	0.0366211
0.043335	-0.00946045	0.0338745
0.0427246	-0.00946045	0.0332642
0.0439453	-0.00946045	0.0344849
0.0448608	-0.00976563	0.0350952
0.0460815	-0.00946045	0.0366211
0.0491333	-0.00915527	0.039978
0.0534058	-0.0088501	0.0445557
0.0582886	-0.0088501	0.0494385
0.0637817	-0.00946045	0.0543213
0.0692749	-0.010376	0.0588989
0.0735474	-0.0119019	0.0616455
0.0759888	-0.0134277	0.062561
0.0769043	-0.0149536	0.0619507
0.078125	-0.0161743	0.0619507
0.0790405	-0.017395	0.0616455
0.0793457	-0.0183105	0.0610352
0.0796509	-0.0195313	0.0601196
0.0808716	-0.0204468	0.0604248
0.0830078	-0.0213623	0.0616455
0.0857544	-0.0216675	0.0640869
0.0888062	-0.0213623	0.0674438
0.0912476	-0.0210571	0.0701904
0.0933838	-0.0210571	0.0723267
0.09552	-0.0210571	0.0744629
0.0973511	-0.0213623	0.0759888
0.0994873	-0.0216675	0.0778198
0.101318	-0.0216675	0.0796509
0.10376	-0.0219727	0.0817871
0.106812	-0.0222778	0.0845337
0.111084	-0.022583	0.088501
0.116577	-0.0231934	0.0933838
0.122375	-0.0234985	0.098877
0.127563	-0.0234985	0.104065
0.131836	-0.0241089	0.107727
0.134583	-0.0244141	0.110168
0.137329	-0.0250244	0.112305
0.140686	-0.0256348	0.115051
0.145264	-0.0265503	0.118713
0.149841	-0.0274658	0.122375
0.153503	-0.0286865	0.124817
0.157776	-0.0299072	0.127869
0.163269	-0.0314331	0.131836
0.170288	-0.0326538	0.137634
0.177307	-0.0338745	0.143433
0.183411	-0.0354004	0.14801
0.189209	-0.0372314	0.151978
0.195007	-0.039978	0.155029
0.2005	-0.0427246	0.157776
0.206909	-0.045166	0.161743
0.213623	-0.0469971	0.166626
0.220032	-0.0491333	0.170898
0.22522	-0.0512695	0.17395
0.229492	-0.0534058	0.176086
0.234375	-0.0552368	0.179138
0.240173	-0.0570679	0.183105
0.246582	-0.0585938	0.187988
0.253601	-0.0598145	0.193787
0.259705	-0.0604248	0.19928
0.263977	-0.0610352	0.202942
0.267029	-0.0613403	0.205688
0.270691	-0.0622559	0.208435
0.274963	-0.0631714	0.211792
0.279236	-0.0643921	0.214844
0.283508	-0.0653076	0.218201
0.287781	-0.0662231	0.221558
0.291138	-0.0668335	0.224304
0.293579	-0.0671387	0.22644
0.296021	-0.0668335	0.229187
0.297852	-0.065918	0.231934
0.299377	-0.0650024	0.234375
0.299683	-0.0637817	0.235901
0.298767	-0.0616455	0.237122
0.298767	-0.0585938	0.240173
0.299377	-0.0549316	0.244446
0.298157	-0.0506592	0.247498
0.2948	-0.0457764	0.249023
0.290222	-0.0402832	0.249939
0.285034	-0.03479	0.250244
0.278931	-0.0289917	0.249939
0.270691	-0.0231934	0.247498
0.260925	-0.0167847	0.244141
0.249023	-0.0100708	0.238953
0.235596	-0.00335693	0.232239
0.221252	0.00274658	0.223999
0.205994	0.00854492	0.214539
0.190125	0.0140381	0.204163
0.174255	0.0198364	0.194092
0.158691	0.0256348	0.184326
0.143127	0.0308228	0.17395
0.127563	0.0350952	0.162659
0.111389	0.0393677	0.150757
0.0949097	0.0430298	0.137939
0.0787354	0.0463867	0.125122
0.0634766	0.0491333	0.11261
0.050354	0.0512695	0.101624
0.0390625	0.0527954	0.0918579
0.0280762	0.0537109	0.0817871
0.017395	0.0537109	0.071106
0.00854492	0.0537109	0.0622559
0.0012207	0.0527954	0.0540161
-0.00396729	0.0518799	0.0479126
-0.00823975	0.0506592	0.0424194
-0.0119019	0.0494385	0.0375366
-0.0152588	0.0479126	0.0326538
-0.0183105	0.0463867	0.0280762
-0.0222778	0.0445557	0.0222778
-0.0271606	0.0427246	0.015564
-0.0323486	0.0411987	0.0088501
-0.0369263	0.039978	0.00305176
-0.0405884	0.0390625	-0.00152588
-0.0427246	0.038147	-0.00457764
-0.0445557	0.0372314	-0.00732422
-0.0463867	0.0360107	-0.010376
-0.0479126	0.03479	-0.0131226
-0.0482178	0.0338745	-0.0143433
-0.0473022	0.032959	-0.0143433
-0.045166	0.0317383	-0.0134277
-0.0436401	0.0302124	-0.0134277
-0.0430298	0.0286865	-0.0143433
-0.0430298	0.0271606	-0.0158691
-0.0430298	0.0262451	-0.0167847
-0.0427246	0.0250244	-0.0177002
-0.0421143	0.0241089	-0.0180054
-0.0418091	0.0234985	-0.0183105
-0.0418091	0.0228882	-0.0189209
-0.0424194	0.0231934	-0.0192261
-0.0430298	0.0234985	-0.0195313
-0.0430298	0.0231934	-0.0198364
-0.0430298	0.0228882	-0.0201416
-0.0430298	0.022583	-0.0204468
-0.0427246	0.022583	-0.0201416
-0.0418091	0.022583	-0.0192261
-0.0411987	0.0228882	-0.0183105
-0.0411987	0.0234985	-0.0177002
-0.0405884	0.0238037	-0.0167847
-0.0393677	0.0247192	-0.0146484
-0.0387573	0.0259399	-0.0128174
-0.0378418	0.0271606	-0.0106812
-0.0363159	0.0280762	-0.00823975
-0.0338745	0.0286865	-0.00518799
-0.0317383	0.0289917	-0.00274658
-0.0305176	0.0292969	-0.0012207
-0.0286865	0.0289917	0.000305176
-0.0268555	0.0274658	0.000610352
-0.0259399	0.0256348	-0.000305176
-0.0262451	0.0234985	-0.00274658
-0.0274658	0.0216675	-0.00579834
-0.0283813	0.0204468	-0.00793457
-0.0283813	0.0192261	-0.00915527
-0.0280762	0.0192261	-0.0088501
-0.027771	0.0195313	-0.00823975
-0.0268555	0.0204468	-0.00640869
-0.0250244	0.0213623	-0.00366211
-0.022583	0.0219727	-0.000610352
-0.0198364	0.0228882	0.00305176
-0.0167847	0.0238037	0.00701904
-0.0140381	0.0241089	0.0100708
-0.012207	0.0241089	0.0119019
-0.0112915	0.0238037	0.0125122
-0.0109863	0.0234985	0.0125122
-0.0112915	0.022583	0.0112915
-0.0125122	0.0213623	0.0088501
-0.0140381	0.0201416	0.00610352
-0.0158691	0.0198364	0.00396729
-0.0177002	0.0201416	0.00244141
-0.0198364	0.020752	0.000915527
-0.0210571	0.0213623	0.000305176
-0.0210571	0.0216675	0.000610352
-0.0201416	0.0213623	0.0012207
-0.0198364	0.020752	0.000915527
-0.0201416	0.0201416	0
-0.0204468	0.0195313	-0.000915527
-0.020752	0.0189209	-0.00183105
-0.020752	0.0186157	-0.00213623
-0.0210571	0.0180054	-0.00305176
-0.0219727	0.017395	-0.00457764
-0.0222778	0.0164795	-0.00579834
-0.022583	0.0158691	-0.00671387
-0.0231934	0.015564	-0.00762939
-0.0241089	0.015564	-0.00854492
-0.0259399	0.0158691	-0.0100708
-0.0274658	0.0161743	-0.0112915
-0.0286865	0.0161743	-0.0125122
-0.0292969	0.0161743	-0.0131226
-0.0302124	0.0158691	-0.0143433
-0.0314331	0.0152588	-0.0161743
-0.0326538	0.0146484	-0.0180054
-0.0332642	0.0140381	-0.0192261
-0.0341797	0.0137329	-0.0204468
-0.0354004	0.0137329	-0.0216675
-0.0360107	0.0137329	-0.0222778
-0.0357056	0.0137329	-0.0219727
-0.03479	0.0137329	-0.0210571
-0.0335693	0.0140381	-0.0195313
-0.0323486	0.0140381	-0.0183105
-0.0326538	0.0143433	-0.0183105
-0.0338745	0.0146484	-0.0192261
-0.0344849	0.0146484	-0.0198364
-0.0335693	0.0143433	-0.0192261
-0.0317383	0.0137329	-0.0180054
-0.0302124	0.0128174	-0.017395
-0.0302124	0.0119019	-0.0183105
-0.0305176	0.0112915	-0.0192261
-0.0305176	0.0106812	-0.0198364
-0.0302124	0.0100708	-0.0201416
-0.0299072	0.00976563	-0.0201416
-0.0299072	0.00946045	-0.0204468
-0.0308228	0.00915527	-0.0216675
-0.0326538	0.00915527	-0.0234985
-0.03479	0.00915527	-0.0256348
-0.0369263	0.0088501	-0.0280762
-0.0387573	0.00823975	-0.0305176
-0.0396729	0.00762939	-0.0320435
-0.039978	0.00701904	-0.032959
-0.0396729	0.00640869	-0.0332642
-0.0393677	0.00549316	-0.0338745
-0.0387573	0.00518799	-0.0335693
-0.0375366	0.00549316	-0.0320435
-0.0360107	0.00579834	-0.0302124
-0.0344849	0.00640869	-0.0280762
-0.0341797	0.00701904	-0.0271606
-0.0363159	0.00732422	-0.0289917
-0.0396729	0.00762939	-0.0320435
-0.0418091	0.00793457	-0.0338745
-0.0427246	0.00793457	-0.03479
-0.0427246	0.00762939	-0.0350952
-0.0421143	0.00671387	-0.0354004
-0.0411987	0.00579834	-0.0354004
-0.039978	0.00488281	-0.0350952
-0.038147	0.00396729	-0.0341797
-0.0354004	0.00305176	-0.0323486
-0.0323486	0.00274658	-0.0296021
-0.0299072	0.00305176	-0.0268555
-0.0280762	0.00396729	-0.0241089
-0.0274658	0.00488281	-0.022583
-0.027771	0.00640869	-0.0213623
-0.0289917	0.00854492	-0.0204468
-0.0311279	0.0106812	-0.0204468
-0.0317383	0.0128174	-0.0189209
-0.0308228	0.0149536	-0.0158691
-0.0289917	0.0164795	-0.0125122
-0.0268555	0.0177002	-0.00915527
-0.0234985	0.0183105	-0.00518799
-0.0192261	0.0177002	-0.00152588
-0.0143433	0.017395	0.00305176
-0.00915527	0.0164795	0.00732422
-0.00396729	0.0161743	0.012207
0.00152588	0.0158691	0.017395
0.00610352	0.015564	0.0216675
0.00915527	0.0161743	0.0253296
0.0112915	0.0167847	0.0280762
0.0143433	0.017395	0.0317383
0.0189209	0.0183105	0.0372314
0.0250244	0.0195313	0.0445557
0.0323486	0.0204468	0.0527954
0.039978	0.0210571	0.0610352
0.0469971	0.0213623	0.0683594
0.0534058	0.0213623	0.0747681
0.0588989	0.0216675	0.0805664
0.062561	0.0216675	0.0842285
0.0640869	0.0219727	0.0860596
0.0634766	0.022583	0.0860596
0.0613403	0.0234985	0.0848389
0.0570679	0.0247192	0.0817871
0.0518799	0.0256348	0.0775146
0.0457764	0.0256348	0.0714111
0.0402832	0.0241089	0.0643921
0.0354004	0.0210571	0.0564575
0.0314331	0.0167847	0.0482178
0.0286865	0.0112915	0.039978
0.0271606	0.00488281	0.0320435
0.0256348	-0.00183105	0.0238037
0.0234985	-0.00823975	0.0152588
0.0213623	-0.0140381	0.00732422
0.0195313	-0.0183105	0.0012207
0.017395	-0.0210571	-0.00366211
0.0134277	-0.0219727	-0.00854492
0.00762939	-0.0210571	-0.0134277
0.00152588	-0.0186157	-0.0170898
-0.00396729	-0.0149536	-0.0189209
-0.00915527	-0.0106812	-0.0198364
-0.0146484	-0.00610352	-0.020752
-0.0201416	-0.00244141	-0.022583
-0.0250244	0.000305176	-0.0247192
-0.0299072	0.00183105	-0.0280762
-0.0341797	0.00305176	-0.0311279
-0.0372314	0.00366211	-0.0335693
-0.0390625	0.00366211	-0.0354004
-0.0411987	0.00305176	-0.038147
-0.0439453	0.00213623	-0.0418091
-0.0466919	0.00183105	-0.0448608
-0.0491333	0.00183105	-0.0473022
-0.050354	0.00183105	-0.0485229
-0.0515747	0.00183105	-0.0497437
-0.0524902	0.00183105	-0.0506592
-0.0540161	0.00213623	-0.0518799
-0.0552368	0.00274658	-0.0524902
-0.0549316	0.00335693	-0.0515747
-0.0540161	0.00396729	-0.0500488
-0.0524902	0.00457764	-0.0479126
-0.050354	0.00427246	-0.0460815
-0.0485229	0.00366211	-0.0448608
-0.0476074	0.00335693	-0.0442505
-0.0479126	0.00335693	-0.0445557
-0.0494385	0.00335693	-0.0460815
-0.0506592	0.00335693	-0.0473022
-0.0506592	0.00366211	-0.0469971
-0.0512695	0.00396729	-0.0473022
-0.0521851	0.00457764	-0.0476074
-0.0527954	0.00488281	-0.0479126
-0.0521851	0.00579834	-0.0463867
-0.0506592	0.00640869	-0.0442505
-0.0485229	0.00701904	-0.0415039
-0.0463867	0.00762939	-0.0387573
-0.0445557	0.00823975	-0.0363159
-0.043335	0.0088501	-0.0344849
-0.0421143	0.0088501	-0.0332642
-0.0408936	0.0088501	-0.0320435
-0.0408936	0.0088501	-0.0320435
-0.0415039	0.00915527	-0.0323486
-0.0424194	0.00946045	-0.032959
-0.0430298	0.0100708	-0.032959
-0.0436401	0.0106812	-0.032959
-0.0439453	0.0106812	-0.0332642
-0.0445557	0.010376	-0.0341797
-0.0454712	0.00976563	-0.0357056
-0.0457764	0.0088501	-0.0369263
-0.045166	0.00762939	-0.0375366
-0.0442505	0.00579834	-0.0384521
-0.0439453	0.00457764	-0.0393677
-0.0448608	0.00335693	-0.0415039
-0.0463867	0.00305176	-0.043335
-0.0482178	0.00335693	-0.0448608
-0.0506592	0.00457764	-0.0460815
-0.0518799	0.00854492	-0.043335
-0.050354	0.0152588	-0.0350952
-0.0463867	0.0247192	-0.0216675
-0.0402832	0.0366211	-0.00366211
-0.0326538	0.050354	0.0177002
-0.0222778	0.0646973	0.0424194
-0.00793457	0.0772095	0.0692749
0.0119019	0.0866699	0.0985718
0.0387573	0.0921631	0.13092
0.0717163	0.0930786	0.164795
0.110779	0.090332	0.201111
0.154114	0.0845337	0.238647
0.200195	0.0756836	0.275879
0.247192	0.0601196	0.307312
0.292358	0.0341797	0.326538
0.332947	-0.00183105	0.331116
0.365601	-0.0424194	0.323181
0.385742	-0.0823975	0.303345
0.39032	-0.118408	0.271912
0.375366	-0.150146	0.22522
0.339661	-0.176086	0.163574
0.285339	-0.193176	0.0921631
0.216675	-0.198975	0.0177002
0.13916	-0.192261	-0.0531006
0.0592041	-0.173035	-0.113831
-0.0158691	-0.142517	-0.158386
-0.0802612	-0.10437	-0.184631
-0.13031	-0.0628662	-0.193176
-0.163574	-0.0228882	-0.186462
-0.178223	0.0109863	-0.167236
-0.175171	0.0360107	-0.13916
-0.15686	0.0518799	-0.10498
-0.128174	0.0582886	-0.0698853
-0.09552	0.0567627	-0.0387573
-0.0637817	0.0488281	-0.0149536
-0.0354004	0.0375366	0.00213623
-0.0134277	0.0256348	0.012207
0.000610352	0.0146484	0.0152588
0.00701904	0.00671387	0.0137329
0.00793457	0.00213623	0.0100708
0.00427246	0.000610352	0.00488281
-0.00213623	0.0012207	-0.000915527
-0.00823975	0.00335693	-0.00488281
-0.0131226	0.00579834	-0.00732422
-0.0161743	0.00762939	-0.00854492
-0.017395	0.00946045	-0.00793457
-0.0167847	0.0109863	-0.00579834
-0.015564	0.0115967	-0.00396729
-0.0137329	0.0115967	-0.00213623
-0.0109863	0.0106812	-0.000305176
-0.00823975	0.00915527	0.000915527
-0.00549316	0.00793457	0.00244141
-0.00335693	0.00671387	0.00335693
-0.00152588	0.00579834	0.00427246
-0.000305176	0.00488281	0.00457764
0	0.00457764	0.00457764
-0.000610352	0.00427246	0.00366211
-0.00183105	0.00396729	0.00213623
-0.00274658	0.00366211	0.000915527
-0.00305176	0.00366211	0.000610352
-0.00396729	0.00366211	-0.000305176
-0.00518799	0.00366211	-0.00152588
-0.00549316	0.00427246	-0.0012207
-0.00457764	0.00488281	0.000305176
-0.00213623	0.00488281	0.00274658
0.000915527	0.00457764	0.00549316
0.00396729	0.00427246	0.00823975
0.00610352	0.00366211	0.00976563
0.00793457	0.00366211	0.0115967
0.00946045	0.00366211	0.0131226
0.0115967	0.00366211	0.0152588
0.0137329	0.00335693	0.0170898
0.015564	0.00305176	0.0186157
0.0158691	0.00335693	0.0192261
0.0158691	0.00396729	0.0198364
0.0161743	0.00457764	0.020752
0.0170898	0.00549316	0.022583
0.0183105	0.00579834	0.0241089
0.0204468	0.00640869	0.0268555
0.022583	0.00671387	0.0292969
0.0241089	0.00671387	0.0308228
0.0247192	0.00640869	0.0311279
0.0244141	0.00579834	0.0302124
0.0247192	0.00518799	0.0299072
0.0247192	0.00457764	0.0292969
0.0244141	0.00366211	0.0280762
0.0231934	0.00274658	0.0259399
0.0219727	0.00244141	0.0244141
0.0213623	0.00213623	0.0234985
0.020752	0.00213623	0.0228882
0.0216675	0.00183105	0.0234985
0.0244141	0.00213623	0.0265503
0.0280762	0.00213623	0.0302124
0.0320435	0.00213623	0.0341797
0.0366211	0.00183105	0.0384521
0.0424194	0.000915527	0.043335
0.0479126	0	0.0479126
0.0534058	-0.0012207	0.0521851
0.0585938	-0.00244141	0.0561523
0.0628662	-0.00396729	0.0588989
0.0665283	-0.00549316	0.0610352
0.0692749	-0.00671387	0.062561
0.0714111	-0.00823975	0.0631714
0.0723267	-0.00915527	0.0631714
0.0717163	-0.00946045	0.0622559
0.0714111	-0.00946045	0.0619507
0.0723267	-0.00915527	0.0631714
0.0738525	-0.00854492	0.0653076
0.0756836	-0.00823975	0.0674438
0.0769043	-0.00823975	0.0686646
0.0790405	-0.00823975	0.0708008
0.0827026	-0.0088501	0.0738525
0.0872803	-0.00946045	0.0778198
0.0927734	-0.0106812	0.0820923
0.0979614	-0.012207	0.0857544
0.103149	-0.0137329	0.0894165
0.108032	-0.0152588	0.0927734
0.11261	-0.0167847	0.0958252
0.117493	-0.0183105	0.0991821
0.121765	-0.0195313	0.102234
0.124207	-0.0204468	0.10376
0.126343	-0.0210571	0.105286
0.1297	-0.0216675	0.108032
0.133362	-0.0222778	0.111084
0.137329	-0.0228882	0.114441
0.142212	-0.0238037	0.118408
0.148315	-0.0247192	0.123596
0.15564	-0.0256348	0.130005
0.163269	-0.0271606	0.136108
0.171204	-0.0286865	0.142517
0.179138	-0.0302124	0.148926
0.187378	-0.0323486	0.155029
0.194397	-0.0344849	0.159912
0.199585	-0.0369263	0.162659
0.204163	-0.0390625	0.1651
0.209656	-0.0408936	0.168762
0.215454	-0.0427246	0.172729
0.220337	-0.0439453	0.176392
0.224609	-0.0448608	0.179749
0.228577	-0.0457764	0.1828
0.233154	-0.0469971	0.186157
0.238342	-0.0479126	0.19043
0.244446	-0.0485229	0.195923
0.250854	-0.0488281	0.202026
0.256653	-0.0485229	0.20813
0.261536	-0.0482178	0.213318
0.265503	-0.0479126	0.21759
0.270081	-0.0476074	0.222473
0.274963	-0.0469971	0.227966
0.280457	-0.0466919	0.233765
0.285034	-0.0466919	0.238342
0.289001	-0.0463867	0.242615
0.291748	-0.0457764	0.245972
0.294495	-0.0454712	0.249023
0.296936	-0.0445557	0.25238
0.298462	-0.0436401	0.254822
0.297546	-0.0418091	0.255737
0.295105	-0.0396729	0.255432
0.291138	-0.0366211	0.254517
0.285339	-0.0320435	0.253296
0.278015	-0.0268555	0.25116
0.26825	-0.0213623	0.246887
0.257263	-0.0149536	0.24231
0.245667	-0.00854492	0.237122
0.233154	-0.00183105	0.231323
0.219421	0.00518799	0.224609
0.204773	0.012207	0.21698
0.189209	0.0186157	0.207825
0.172729	0.0247192	0.197449
0.15625	0.0308228	0.187073
0.139771	0.0366211	0.176392
0.123596	0.0421143	0.16571
0.107422	0.0473022	0.154724
0.0921631	0.0512695	0.143433
0.0778198	0.0549316	0.132751
0.0643921	0.0579834	0.122375
0.0512695	0.06073	0.112
0.0384521	0.0631714	0.101624
0.0268555	0.0646973	0.0915527
0.0170898	0.0656128	0.0827026
0.00823975	0.065918	0.0741577
0	0.065918	0.065918
-0.00762939	0.0656128	0.0579834
-0.0146484	0.0653076	0.0506592
-0.0216675	0.0646973	0.0430298
-0.0283813	0.0640869	0.0357056
-0.0338745	0.0631714	0.0292969
-0.0387573	0.062561	0.0238037
-0.0430298	0.0613403	0.0183105
-0.0469971	0.0604248	0.0134277
-0.0506592	0.0595093	0.0088501
-0.0537109	0.0585938	0.00488281
-0.057373	0.0582886	0.000915527
-0.0610352	0.0579834	-0.00305176
-0.0637817	0.057373	-0.00640869
-0.065918	0.0561523	-0.00976563
-0.0671387	0.0552368	-0.0119019
-0.0668335	0.0540161	-0.0128174
-0.065918	0.0527954	-0.0131226
-0.0646973	0.0512695	-0.0134277
-0.0640869	0.0491333	-0.0149536
-0.0631714	0.0469971	-0.0161743
-0.0619507	0.045166	-0.0167847
-0.0610352	0.043335	-0.0177002
-0.0601196	0.0418091	-0.0183105
-0.0595093	0.0405884	-0.0189209
-0.0604248	0.0396729	-0.020752
-0.0622559	0.0390625	-0.0231934
-0.0637817	0.0387573	-0.0250244
-0.0646973	0.0387573	-0.0259399
-0.0650024	0.0390625	-0.0259399
-0.0650024	0.0393677	-0.0256348
-0.0646973	0.0393677	-0.0253296
-0.0634766	0.0393677	-0.0241089
-0.0616455	0.0396729	-0.0219727
-0.0598145	0.0396729	-0.0201416
-0.0576782	0.0393677	-0.0183105
-0.0558472	0.0390625	-0.0167847
-0.0537109	0.0390625	-0.0146484
-0.0515747	0.0393677	-0.012207
-0.0500488	0.0393677	-0.0106812
-0.0488281	0.0390625	-0.00976563
-0.0469971	0.0387573	-0.00823975
-0.0448608	0.0384521	-0.00640869
-0.0430298	0.038147	-0.00488281
-0.0411987	0.0375366	-0.00366211
-0.0396729	0.0372314	-0.00244141
-0.0378418	0.0366211	-0.0012207
-0.0357056	0.0363159	0.000610352
-0.0335693	0.0357056	0.00213623
-0.0320435	0.03479	0.00274658
-0.0308228	0.0341797	0.00335693
-0.0305176	0.0338745	0.00335693
-0.0311279	0.0341797	0.00305176
-0.0326538	0.0338745	0.0012207
-0.032959	0.0335693	0.000610352
-0.032959	0.0335693	0.000610352
-0.0326538	0.0335693	0.000915527
-0.0323486	0.0338745	0.00152588
-0.0320435	0.0335693	0.00152588
-0.0311279	0.0338745	0.00274658
-0.0292969	0.0338745	0.00457764
-0.027771	0.0338745	0.00610352
-0.0262451	0.0341797	0.00793457
-0.0253296	0.0341797	0.0088501
-0.0256348	0.0338745	0.00823975
-0.0268555	0.0335693	0.00671387
-0.0280762	0.032959	0.00488281
-0.0286865	0.0323486	0.00366211
-0.027771	0.0317383	0.00396729
-0.0265503	0.0311279	0.00457764
-0.0259399	0.0308228	0.00488281
-0.0256348	0.0305176	0.00488281
-0.0247192	0.0305176	0.00579834
-0.0228882	0.0305176	0.00762939
-0.020752	0.0302124	0.00946045
-0.0189209	0.0302124	0.0112915
-0.0183105	0.0299072	0.0115967
-0.0195313	0.0299072	0.010376
-0.0219727	0.0296021	0.00762939
-0.0247192	0.0289917	0.00427246
-0.0271606	0.0280762	0.000915527
-0.0292969	0.0271606	-0.00213623
